22/04/2022,14.00,14.00,14.00,0.00 (0.00 %)," ",0,0,0,0,14.00,14.00,14.00,14.00
21/04/2022,14.00,14.00,14.00,0.00 (0.00 %)," ",0,0,0,0,14.00,14.0,14.00,14.00
20/04/2022,14.00,14.00,14.00,0.00 (0.00 %)," ",0,0,0,0,14.00,14.00,14.00,14.00
19/04/2022,14.00,14.00,14.00,0.00 (0.00 %)," ",0,0,0,0,14.00,14.0,14.00,14.00
18/04/2022,14.00,14.00,14.00,0.00 (0.00 %)," ",0,0,0,0,14.00,14.00,14.00,14.00
14/04/2022,14.00,14.00,14.00,0.00 (0.00 %)," ",0,0,0,0,14.00,14.0,14.00,14.00
13/04/2022,14.00,14.00,14.00,0.00 (0.00 %)," ",0,0,0,0,14.00,14.00,14.00,14.00
12/04/2022,14.00,14.00,14.00,0.00 (0.00 %)," ",0,0,0,0,14.00,14.0,14.00,14.00
08/04/2022,14.00,14.00,14.00,0.00 (0.00 %)," ",200,"2,800,000",0,0,14.00,14.00,14.00,14.00
07/04/2022,14.00,14.00,14.00,0.00 (0.00 %)," ",0,0,0,0,14.00,14.0,14.00,14.00
06/04/2022,14.00,14.00,14.00,0.00 (0.00 %)," ",0,0,0,0,14.00,14.00,14.00,14.00
05/04/2022,14.00,14.00,14.00,0.00 (0.00 %)," ",0,0,0,0,14.00,14.0,14.00,14.00
04/04/2022,14.00,14.00,14.00,0.00 (0.00 %)," ",0,0,0,0,14.00,14.00,14.00,14.00
01/04/2022,14.00,14.00,14.00,0.00 (0.00 %)," ",0,0,0,0,14.00,14.0,14.00,14.00
31/03/2022,14.00,14.00,14.00,0.00 (0.00 %)," ",0,0,0,0,14.00,14.00,14.00,14.00
30/03/2022,14.00,14.00,14.00,0.00 (0.00 %)," ",0,0,0,0,14.00,14.0,14.00,14.00
29/03/2022,14.00,14.00,14.00,0.00 (0.00 %)," ",0,0,0,0,14.00,14.00,14.00,14.00
28/03/2022,14.00,14.00,14.00,0.00 (0.00 %)," ",0,0,0,0,14.00,14.0,14.00,14.00
25/03/2022,14.00,14.00,14.00,0.00 (0.00 %)," ",0,0,0,0,14.00,14.00,14.00,14.00
24/03/2022,14.00,14.00,14.00,0.00 (0.00 %)," ",0,0,0,0,14.00,14.0,14.00,14.00
23/03/2022,14.00,14.00,14.00,0.00 (0.00 %)," ",0,0,0,0,14.00,14.00,14.00,14.00
22/03/2022,14.00,14.00,14.00,0.00 (0.00 %)," ",0,0,0,0,14.00,14.0,14.00,14.00
21/03/2022,14.00,14.00,14.00,0.00 (0.00 %)," ",0,0,0,0,14.00,14.00,14.00,14.00
18/03/2022,14.00,14.00,14.00,0.00 (0.00 %)," ",0,0,0,0,14.00,14.0,14.00,14.00
17/03/2022,14.00,14.00,14.00,0.00 (0.00 %)," ",0,0,0,0,14.00,14.00,14.00,14.00
16/03/2022,14.00,14.00,14.00,0.00 (0.00 %)," ",0,0,0,0,14.00,14.0,14.00,14.00
15/03/2022,14.00,14.00,14.00,0.00 (0.00 %)," ",0,0,0,0,14.00,14.00,14.00,14.00
14/03/2022,14.00,14.00,14.00,0.00 (0.00 %)," ",0,0,0,0,14.00,14.0,14.00,14.00
11/03/2022,14.00,14.00,14.00,0.00 (0.00 %)," ",0,0,0,0,14.00,14.00,14.00,14.00
10/03/2022,14.00,14.00,14.00,0.00 (0.00 %)," ",0,0,0,0,14.00,14.0,14.00,14.00
09/03/2022,14.00,14.00,14.00,0.00 (0.00 %)," ",0,0,0,0,14.00,14.00,14.00,14.00
08/03/2022,14.00,14.00,14.00,0.00 (0.00 %)," ",0,0,0,0,14.00,14.0,14.00,14.00
07/03/2022,14.00,14.00,14.00,0.00 (0.00 %)," ",0,0,0,0,14.00,14.00,14.00,14.00
04/03/2022,14.00,14.00,14.00,0.00 (0.00 %)," ",0,0,0,0,14.00,14.0,14.00,14.00
03/03/2022,14.00,14.00,14.00,0.00 (0.00 %)," ",0,0,0,0,14.00,14.00,14.00,14.00
02/03/2022,14.00,14.00,14.00,0.00 (0.00 %)," ",0,0,0,0,14.00,14.0,14.00,14.00
01/03/2022,14.00,14.00,14.00,0.00 (0.00 %)," ",0,0,0,0,14.00,14.00,14.00,14.00
28/02/2022,14.00,14.00,14.00,0.00 (0.00 %)," ",0,0,0,0,14.00,14.0,14.00,14.00
25/02/2022,14.00,14.00,14.00,0.00 (0.00 %)," ",0,0,0,0,14.00,14.00,14.00,14.00
24/02/2022,14.00,14.00,14.00,0.00 (0.00 %)," ",0,0,0,0,14.00,14.0,14.00,14.00
23/02/2022,14.00,14.00,14.00,0.00 (0.00 %)," ",0,0,0,0,14.00,14.00,14.00,14.00
22/02/2022,14.00,14.00,14.00,0.00 (0.00 %)," ",0,0,0,0,14.00,14.0,14.00,14.00
21/02/2022,14.00,14.00,14.00,0.00 (0.00 %)," ",0,0,0,0,14.00,14.00,14.00,14.00
18/02/2022,14.00,14.00,14.00,0.00 (0.00 %)," ",0,0,0,0,14.00,14.0,14.00,14.00
17/02/2022,14.00,14.00,14.00,0.00 (0.00 %)," ",0,0,0,0,14.00,14.00,14.00,14.00
16/02/2022,14.00,14.00,14.00,0.00 (0.00 %)," ",0,0,0,0,14.00,14.0,14.00,14.00
15/02/2022,14.00,14.00,14.00,0.00 (0.00 %)," ",0,0,0,0,14.00,14.00,14.00,14.00
14/02/2022,14.00,14.00,14.00,0.00 (0.00 %)," ",0,0,0,0,14.00,14.0,14.00,14.00
11/02/2022,14.00,14.00,14.00,0.00 (0.00 %)," ",0,0,0,0,14.00,14.00,14.00,14.00
10/02/2022,14.00,14.00,14.00,0.00 (0.00 %)," ",0,0,0,0,14.00,14.0,14.00,14.00
09/02/2022,14.00,14.00,14.00,0.00 (0.00 %)," ",0,0,0,0,14.00,14.00,14.00,14.00
08/02/2022,14.00,14.00,14.00,0.00 (0.00 %)," ",0,0,0,0,14.00,14.0,14.00,14.00
07/02/2022,14.00,14.00,14.00,0.00 (0.00 %)," ",0,0,0,0,14.00,14.00,14.00,14.00
28/01/2022,14.00,14.00,14.00,0.00 (0.00 %)," ",0,0,0,0,14.00,14.0,14.00,14.00
27/01/2022,14.00,14.00,14.00,0.00 (0.00 %)," ",0,0,0,0,14.00,14.00,14.00,14.00
26/01/2022,14.00,14.00,14.00,0.00 (0.00 %)," ",0,0,0,0,14.00,14.0,14.00,14.00
25/01/2022,14.00,14.00,14.00,0.00 (0.00 %)," ",0,0,0,0,14.00,14.00,14.00,14.00
24/01/2022,14.00,14.00,14.00,0.00 (0.00 %)," ",0,0,0,0,14.00,14.0,14.00,14.00
21/01/2022,14.00,14.00,14.00,0.00 (0.00 %)," ",0,0,0,0,14.00,14.00,14.00,14.00
20/01/2022,14.00,14.00,14.00,0.00 (0.00 %)," ",0,0,0,0,14.00,14.0,14.00,14.00
19/01/2022,14.00,14.00,14.00,0.00 (0.00 %)," ",0,0,0,0,14.00,14.00,14.00,14.00
18/01/2022,14.00,14.00,14.00,0.00 (0.00 %)," ",0,0,0,0,14.00,14.0,14.00,14.00
17/01/2022,14.00,14.00,14.00,0.00 (0.00 %)," ",0,0,0,0,14.00,14.00,14.00,14.00
14/01/2022,14.00,14.00,14.00,0.00 (0.00 %)," ",0,0,0,0,14.00,14.0,14.00,14.00
13/01/2022,14.00,14.00,14.00,0.00 (0.00 %)," ",0,0,0,0,14.00,14.00,14.00,14.00
12/01/2022,14.00,14.00,14.00,0.00 (0.00 %)," ",0,0,0,0,14.00,14.0,14.00,14.00
11/01/2022,14.00,14.00,14.00,0.00 (0.00 %)," ",0,0,0,0,14.00,14.00,14.00,14.00
10/01/2022,14.00,14.00,14.00,0.00 (0.00 %)," ",0,0,0,0,14.00,14.0,14.00,14.00
07/01/2022,14.00,14.00,14.00,0.00 (0.00 %)," ",0,0,0,0,14.00,14.00,14.00,14.00
06/01/2022,14.00,14.00,14.00,0.00 (0.00 %)," ",0,0,0,0,14.00,14.0,14.00,14.00
05/01/2022,14.00,14.00,14.00,0.00 (0.00 %)," ",0,0,0,0,14.00,14.00,14.00,14.00
04/01/2022,14.00,14.00,14.00,0.00 (0.00 %)," ",0,0,0,0,14.00,14.0,14.00,14.00
31/12/2021,14.00,14.00,14.00,0.00 (0.00 %)," ",0,0,0,0,14.00,14.00,14.00,14.00
30/12/2021,14.00,14.00,14.00,0.00 (0.00 %)," ",0,0,0,0,14.00,14.0,14.00,14.00
29/12/2021,14.00,14.00,14.00,0.00 (0.00 %)," ",0,0,0,0,14.00,14.00,14.00,14.00
28/12/2021,14.00,14.00,14.00,0.00 (0.00 %)," ",0,0,0,0,14.00,14.0,14.00,14.00
27/12/2021,14.00,14.00,14.00,0.00 (0.00 %)," ",0,0,0,0,14.00,14.00,14.00,14.00
24/12/2021,14.00,14.00,14.00,0.00 (0.00 %)," ",0,0,0,0,14.00,14.0,14.00,14.00
23/12/2021,14.00,14.00,14.00,0.00 (0.00 %)," ",0,0,0,0,14.00,14.00,14.00,14.00
21/12/2021,14.00,14.00,14.00,0.00 (0.00 %)," ",0,0,0,0,14.00,14.0,14.00,14.00
20/12/2021,14.00,14.00,14.00,0.00 (0.00 %)," ",0,0,0,0,14.00,14.00,14.00,14.00
17/12/2021,14.00,14.00,14.00,0.00 (0.00 %)," ",0,0,0,0,14.00,14.0,14.00,14.00
16/12/2021,14.00,14.00,14.00,0.00 (0.00 %)," ",0,0,0,0,14.00,14.00,14.00,14.00
15/12/2021,14.00,14.00,14.00,0.00 (0.00 %)," ",0,0,0,0,14.00,14.0,14.00,14.00
14/12/2021,14.00,14.00,14.00,0.00 (0.00 %)," ",0,0,0,0,14.00,14.00,14.00,14.00
13/12/2021,14.00,14.00,14.00,0.00 (0.00 %)," ",0,0,0,0,14.00,14.0,14.00,14.00
10/12/2021,14.00,14.00,14.00,0.00 (0.00 %)," ",0,0,0,0,14.00,14.00,14.00,14.00
09/12/2021,14.00,14.00,14.00,0.00 (0.00 %)," ",0,0,0,0,14.00,14.0,14.00,14.00
08/12/2021,14.00,14.00,14.00,0.00 (0.00 %)," ",0,0,0,0,14.00,14.00,14.00,14.00
07/12/2021,14.00,14.00,14.00,0.00 (0.00 %)," ",0,0,0,0,14.00,14.0,14.00,14.00
06/12/2021,14.00,14.00,14.00,0.00 (0.00 %)," ",0,0,0,0,14.00,14.00,14.00,14.00
03/12/2021,14.00,14.00,14.00,0.00 (0.00 %)," ",0,0,0,0,14.00,14.0,14.00,14.00
02/12/2021,14.00,14.00,14.00,0.00 (0.00 %)," ",0,0,0,0,14.00,14.00,14.00,14.00
01/12/2021,14.00,14.00,14.00,0.00 (0.00 %)," ",0,0,0,0,14.00,14.0,14.00,14.00
30/11/2021,14.00,14.00,14.00,0.00 (0.00 %)," ",0,0,0,0,14.00,14.00,14.00,14.00
29/11/2021,14.00,14.00,14.00,0.00 (0.00 %)," ",0,0,0,0,14.00,14.0,14.00,14.00
26/11/2021,14.00,14.00,14.00,0.00 (0.00 %)," ",0,0,0,0,14.00,14.00,14.00,14.00
25/11/2021,14.00,14.00,14.00,0.00 (0.00 %)," ",0,0,0,0,14.00,14.0,14.00,14.00
24/11/2021,14.00,14.00,14.00,0.00 (0.00 %)," ",0,0,0,0,14.00,14.00,14.00,14.00
23/11/2021,14.00,14.00,14.00,0.00 (0.00 %)," ",0,0,0,0,14.00,14.0,14.00,14.00
22/11/2021,14.00,14.00,14.00,0.00 (0.00 %)," ",0,0,0,0,14.00,14.00,14.00,14.00
19/11/2021,15.50,15.50,14.00,0.00 (0.00 %)," ",0,0,0,0,15.50,15.5,15.50,15.50
18/11/2021,15.50,15.50,14.00,0.00 (0.00 %)," ",0,0,0,0,15.50,15.50,15.50,15.50
17/11/2021,15.50,15.50,14.00,0.00 (0.00 %)," ",0,0,0,0,15.50,15.5,15.50,15.50
16/11/2021,15.50,15.50,14.00,0.00 (0.00 %)," ",0,0,0,0,15.50,15.50,15.50,15.50
15/11/2021,15.50,15.50,14.00,0.00 (0.00 %)," ",0,0,0,0,15.50,15.5,15.50,15.50
12/11/2021,15.50,15.50,14.00,0.00 (0.00 %)," ",0,0,0,0,15.50,15.50,15.50,15.50
11/11/2021,14.00,15.50,14.00,0.00 (0.00 %)," ",0,0,0,0,15.50,15.5,15.50,15.50
10/11/2021,14.00,15.50,14.00,0.00 (0.00 %)," ",0,0,0,0,15.50,15.50,15.50,15.50
09/11/2021,15.50,15.50,14.00,0.00 (0.00 %)," ",0,0,0,0,15.50,15.5,15.50,15.50
08/11/2021,15.50,15.50,14.00,0.00 (0.00 %)," ",0,0,0,0,15.50,15.50,15.50,15.50
05/11/2021,15.50,15.50,14.00,0.00 (0.00 %)," ",0,0,0,0,15.50,15.5,15.50,15.50
04/11/2021,15.50,15.50,14.00,0.00 (0.00 %)," ",0,0,0,0,15.50,15.50,15.50,15.50
03/11/2021,15.50,15.50,14.00,0.00 (0.00 %)," ",0,0,0,0,15.50,15.5,15.50,15.50
02/11/2021,15.50,15.50,14.00,0.00 (0.00 %)," ",0,0,0,0,15.50,15.50,15.50,15.50
01/11/2021,15.50,15.50,14.00,0.00 (0.00 %)," ",0,0,0,0,15.50,15.5,15.50,15.50
29/10/2021,15.50,15.50,14.00,0.00 (0.00 %)," ",0,0,0,0,15.50,15.50,15.50,15.50
28/10/2021,15.50,15.50,14.00,0.00 (0.00 %)," ",0,0,0,0,15.50,15.5,15.50,15.50
27/10/2021,15.50,15.50,14.00,0.00 (0.00 %)," ",0,0,0,0,15.50,15.50,15.50,15.50
26/10/2021,15.50,15.50,14.00,0.00 (0.00 %)," ",0,0,0,0,15.50,15.5,15.50,15.50
25/10/2021,15.50,15.50,14.00,0.00 (0.00 %)," ",0,0,0,0,15.50,15.50,15.50,15.50
22/10/2021,15.50,15.50,14.00,0.00 (0.00 %)," ",0,0,0,0,15.50,15.5,15.50,15.50
21/10/2021,15.50,15.50,14.00,0.00 (0.00 %)," ",0,0,0,0,15.50,15.50,15.50,15.50
20/10/2021,15.50,15.50,14.00,0.00 (0.00 %)," ",0,0,0,0,15.50,15.5,15.50,15.50
19/10/2021,15.50,15.50,14.00,0.00 (0.00 %)," ",0,0,0,0,15.50,15.50,15.50,15.50
18/10/2021,15.50,15.50,14.00,0.00 (0.00 %)," ",0,0,0,0,15.50,15.5,15.50,15.50
15/10/2021,15.50,15.50,14.00,0.00 (0.00 %)," ",0,0,0,0,15.50,15.50,15.50,15.50
14/10/2021,15.50,15.50,14.00,0.00 (0.00 %)," ",0,0,0,0,15.50,15.5,15.50,15.50
13/10/2021,14.00,15.50,14.00,0.00 (0.00 %)," ",0,0,0,0,15.50,15.50,15.50,15.50
12/10/2021,15.50,15.50,14.00,0.00 (0.00 %)," ",0,0,0,0,15.50,15.5,15.50,15.50
11/10/2021,15.50,15.50,14.00,0.00 (0.00 %)," ",0,0,0,0,15.50,15.50,15.50,15.50
08/10/2021,15.50,15.50,14.00,0.00 (0.00 %)," ",0,0,0,0,15.50,15.5,15.50,15.50
07/10/2021,15.50,15.50,14.00,0.00 (0.00 %)," ",0,0,0,0,15.50,15.50,15.50,15.50
06/10/2021,15.50,15.50,14.00,0.00 (0.00 %)," ",0,0,0,0,15.50,15.5,15.50,15.50
05/10/2021,15.50,15.50,14.00,0.00 (0.00 %)," ",0,0,0,0,15.50,15.50,15.50,15.50
04/10/2021,15.50,15.50,14.00,0.00 (0.00 %)," ",0,0,0,0,15.50,15.5,15.50,15.50
01/10/2021,15.50,15.50,14.00,0.00 (0.00 %)," ",0,0,0,0,15.50,15.50,15.50,15.50
30/09/2021,15.50,15.50,14.00,0.00 (0.00 %)," ",0,0,0,0,15.50,15.5,15.50,15.50
29/09/2021,15.50,15.50,14.00,0.00 (0.00 %)," ",0,0,0,0,15.50,15.50,15.50,15.50
28/09/2021,15.50,15.50,14.00,0.00 (0.00 %)," ",0,0,0,0,15.50,15.5,15.50,15.50
27/09/2021,15.50,15.50,14.00,0.00 (0.00 %)," ",0,0,0,0,15.50,15.50,15.50,15.50
24/09/2021,15.50,15.50,14.00,0.00 (0.00 %)," ",0,0,0,0,15.50,15.5,15.50,15.50
23/09/2021,15.50,15.50,14.00,0.00 (0.00 %)," ",0,0,0,0,15.50,15.50,15.50,15.50
22/09/2021,15.50,15.50,14.00,0.00 (0.00 %)," ",0,0,0,0,15.50,15.5,15.50,15.50
21/09/2021,15.50,15.50,14.00,0.00 (0.00 %)," ",0,0,0,0,15.50,15.50,15.50,15.50
20/09/2021,15.50,15.50,14.00,0.00 (0.00 %)," ",0,0,0,0,15.50,15.5,15.50,15.50
17/09/2021,15.50,15.50,14.00,0.00 (0.00 %)," ",0,0,0,0,15.50,15.50,15.50,15.50
16/09/2021,15.50,15.50,14.00,0.00 (0.00 %)," ",0,0,0,0,15.50,15.5,15.50,15.50
15/09/2021,14.00,15.50,14.00,0.00 (0.00 %)," ",0,0,0,0,15.50,15.50,15.50,15.50
14/09/2021,15.50,15.50,14.00,0.00 (0.00 %)," ",0,0,0,0,15.50,15.5,15.50,15.50
13/09/2021,15.50,15.50,14.00,0.00 (0.00 %)," ",0,0,0,0,15.50,15.50,15.50,15.50
10/09/2021,15.50,15.50,14.00,0.00 (0.00 %)," ",0,0,0,0,15.50,15.5,15.50,15.50
09/09/2021,15.50,15.50,14.00,0.00 (0.00 %)," ",0,0,0,0,15.50,15.50,15.50,15.50
08/09/2021,15.50,15.50,14.00,0.00 (0.00 %)," ",0,0,0,0,15.50,15.5,15.50,15.50
07/09/2021,15.50,15.50,14.00,0.00 (0.00 %)," ",0,0,0,0,15.50,15.50,15.50,15.50
06/09/2021,15.50,15.50,14.00,0.00 (0.00 %)," ",0,0,0,0,15.50,15.5,15.50,15.50
01/09/2021,15.50,15.50,14.00,0.00 (0.00 %)," ",0,0,0,0,15.50,15.50,15.50,15.50
31/08/2021,15.50,15.50,14.00,0.00 (0.00 %)," ",0,0,0,0,15.50,15.5,15.50,15.50
30/08/2021,15.50,15.50,14.00,0.00 (0.00 %)," ",0,0,0,0,15.50,15.50,15.50,15.50
27/08/2021,15.50,15.50,14.00,0.00 (0.00 %)," ",0,0,0,0,15.50,15.5,15.50,15.50
26/08/2021,15.50,15.50,14.00,0.00 (0.00 %)," ",0,0,0,0,15.50,15.50,15.50,15.50
25/08/2021,15.50,15.50,14.00,0.00 (0.00 %)," ",0,0,0,0,15.50,15.5,15.50,15.50
24/08/2021,15.50,15.50,14.00,0.00 (0.00 %)," ",0,0,0,0,15.50,15.50,15.50,15.50
23/08/2021,15.50,15.50,14.00,0.00 (0.00 %)," ",0,0,0,0,15.50,15.5,15.50,15.50
20/08/2021,15.50,15.50,14.00,0.00 (0.00 %)," ",0,0,0,0,15.50,15.50,15.50,15.50
19/08/2021,15.50,15.50,14.00,0.00 (0.00 %)," ",0,0,0,0,15.50,15.5,15.50,15.50
18/08/2021,15.50,15.50,14.00,0.00 (0.00 %)," ",0,0,0,0,15.50,15.50,15.50,15.50
17/08/2021,15.50,15.50,14.00,0.00 (0.00 %)," ",0,0,0,0,15.50,15.5,15.50,15.50
16/08/2021,15.50,15.50,14.00,0.00 (0.00 %)," ",0,0,0,0,15.50,15.50,15.50,15.50
13/08/2021,15.50,15.50,14.00,0.00 (0.00 %)," ",0,0,0,0,15.50,15.5,15.50,15.50
12/08/2021,15.50,15.50,14.00,0.00 (0.00 %)," ",0,0,0,0,15.50,15.50,15.50,15.50
11/08/2021,15.50,15.50,14.00,0.00 (0.00 %)," ",0,0,0,0,15.50,15.5,15.50,15.50
10/08/2021,15.50,15.50,14.00,0.00 (0.00 %)," ",0,0,0,0,15.50,15.50,15.50,15.50
09/08/2021,15.50,15.50,14.00,0.00 (0.00 %)," ",0,0,0,0,15.50,15.5,15.50,15.50
06/08/2021,15.50,15.50,14.00,0.00 (0.00 %)," ",0,0,0,0,15.50,15.50,15.50,15.50
05/08/2021,15.50,15.50,14.00,0.00 (0.00 %)," ",0,0,0,0,15.50,15.5,15.50,15.50
04/08/2021,15.50,15.50,14.00,0.00 (0.00 %)," ",0,0,0,0,15.50,15.50,15.50,15.50
03/08/2021,15.50,15.50,14.00,0.00 (0.00 %)," ",0,0,0,0,15.50,15.5,15.50,15.50
02/08/2021,15.50,15.50,14.00,0.00 (0.00 %)," ",0,0,0,0,15.50,15.50,15.50,15.50
30/07/2021,15.50,15.50,14.00,0.00 (0.00 %)," ",0,0,0,0,15.50,15.5,15.50,15.50
29/07/2021,15.50,15.50,14.00,0.00 (0.00 %)," ",0,0,0,0,15.50,15.50,15.50,15.50
28/07/2021,15.50,15.50,14.00,0.00 (0.00 %)," ",0,0,0,0,15.50,15.5,15.50,15.50
27/07/2021,15.50,15.50,14.00,0.00 (0.00 %)," ",0,0,0,0,15.50,15.50,15.50,15.50
26/07/2021,15.50,15.50,14.00,0.00 (0.00 %)," ",0,0,0,0,15.50,15.5,15.50,15.50
23/07/2021,15.50,15.50,14.00,0.00 (0.00 %)," ",0,0,0,0,15.50,15.50,15.50,15.50
22/07/2021,15.50,15.50,14.00,0.00 (0.00 %)," ",0,0,0,0,15.50,15.5,15.50,15.50
21/07/2021,15.50,15.50,14.00,0.00 (0.00 %)," ",0,0,0,0,15.50,15.50,15.50,15.50
20/07/2021,15.50,15.50,14.00,0.00 (0.00 %)," ",0,0,0,0,15.50,15.5,15.50,15.50
19/07/2021,15.50,15.50,14.00,0.00 (0.00 %)," ",0,0,0,0,15.50,15.50,15.50,15.50
16/07/2021,15.50,15.50,14.00,0.00 (0.00 %)," ",0,0,0,0,15.50,15.5,15.50,15.50
15/07/2021,15.50,15.50,14.00,0.00 (0.00 %)," ",0,0,0,0,15.50,15.50,15.50,15.50
14/07/2021,15.50,15.50,14.00,0.00 (0.00 %)," ",0,0,0,0,15.50,15.5,15.50,15.50
13/07/2021,15.50,15.50,14.00,0.00 (0.00 %)," ",0,0,0,0,15.50,15.50,15.50,15.50
12/07/2021,15.50,15.50,14.00,0.00 (0.00 %)," ",0,0,0,0,15.50,15.5,15.50,15.50
09/07/2021,15.50,15.50,14.00,0.00 (0.00 %)," ",0,0,0,0,15.50,15.50,15.50,15.50
08/07/2021,14.00,15.50,14.00,0.00 (0.00 %)," ",0,0,0,0,15.50,15.5,15.50,15.50
07/07/2021,15.50,15.50,14.00,0.00 (0.00 %)," ",0,0,0,0,15.50,15.50,15.50,15.50
06/07/2021,15.50,15.50,14.00,0.00 (0.00 %)," ",0,0,"1,000","13,200,000",15.50,15.5,15.50,15.50
05/07/2021,15.50,15.50,14.00,0.00 (0.00 %)," ",0,0,"3,000","39,600,000",15.50,15.50,15.50,15.50
02/07/2021,15.50,15.50,14.00,0.00 (0.00 %)," ",0,0,0,0,15.50,15.5,15.50,15.50
01/07/2021,15.50,15.50,14.00,0.00 (0.00 %)," ",0,0,0,0,15.50,15.50,15.50,15.50
30/06/2021,15.50,15.50,14.00,0.00 (0.00 %)," ",0,0,0,0,15.50,15.5,15.50,15.50
29/06/2021,15.50,15.50,14.00,0.00 (0.00 %)," ",0,0,0,0,15.50,15.50,15.50,15.50
28/06/2021,15.50,15.50,14.00,0.00 (0.00 %)," ",0,0,0,0,15.50,15.5,15.50,15.50
25/06/2021,15.50,15.50,14.00,0.00 (0.00 %)," ",0,0,0,0,15.50,15.50,15.50,15.50
24/06/2021,15.50,15.50,14.00,0.00 (0.00 %)," ",0,0,0,0,15.50,15.5,15.50,15.50
23/06/2021,15.50,15.50,14.00,0.00 (0.00 %)," ",31,"480,500",0,0,15.50,15.50,15.50,15.50
22/06/2021,15.50,15.50,14.00,0.00 (0.00 %)," ",0,0,0,0,15.50,15.5,15.50,15.50
18/06/2021,11.10,11.10,10.03,0.00 (0.00 %)," ",0,0,0,0,11.10,11.10,11.10,11.10
17/06/2021,11.10,11.10,10.03,0.00 (0.00 %)," ",0,0,0,0,11.10,11.1,11.10,11.10
16/06/2021,11.10,11.10,10.03,0.00 (0.00 %)," ",0,0,0,0,11.10,11.10,11.10,11.10
15/06/2021,11.10,11.10,10.03,0.00 (0.00 %)," ",0,0,0,0,11.10,11.1,11.10,11.10
14/06/2021,11.10,11.10,10.03,0.00 (0.00 %)," ",0,0,0,0,11.10,11.10,11.10,11.10
11/06/2021,11.10,11.10,10.03,0.00 (0.00 %)," ",0,0,0,0,11.10,11.1,11.10,11.10
10/06/2021,11.10,11.10,10.03,0.00 (0.00 %)," ",0,0,0,0,11.10,11.10,11.10,11.10
09/06/2021,11.10,11.10,10.03,0.00 (0.00 %)," ",0,0,0,0,11.10,11.1,11.10,11.10
08/06/2021,11.10,11.10,10.03,0.00 (0.00 %)," ",0,0,0,0,11.10,11.10,11.10,11.10
07/06/2021,11.10,11.10,10.03,0.00 (0.00 %)," ",0,0,0,0,11.10,11.1,11.10,11.10
04/06/2021,11.10,11.10,10.03,0.00 (0.00 %)," ",0,0,0,0,11.10,11.10,11.10,11.10
03/06/2021,11.10,11.10,10.03,0.00 (0.00 %)," ",0,0,0,0,11.10,11.1,11.10,11.10
02/06/2021,11.10,11.10,10.03,0.00 (0.00 %)," ",0,0,0,0,11.10,11.10,11.10,11.10
01/06/2021,11.10,11.10,10.03,0.00 (0.00 %)," ",0,0,0,0,11.10,11.1,11.10,11.10
31/05/2021,11.10,11.10,10.03,0.00 (0.00 %)," ",0,0,0,0,11.10,11.10,11.10,11.10
28/05/2021,11.10,11.10,10.03,0.00 (0.00 %)," ",0,0,0,0,11.10,11.1,11.10,11.10
27/05/2021,11.10,11.10,10.03,0.00 (0.00 %)," ",0,0,0,0,11.10,11.10,11.10,11.10
26/05/2021,11.10,11.10,10.03,0.00 (0.00 %)," ",0,0,0,0,11.10,11.1,11.10,11.10
25/05/2021,11.10,11.10,10.03,0.00 (0.00 %)," ",0,0,0,0,11.10,11.10,11.10,11.10
24/05/2021,11.10,11.10,10.03,0.00 (0.00 %)," ",0,0,0,0,11.10,11.1,11.10,11.10
21/05/2021,11.10,11.10,10.03,0.00 (0.00 %)," ",0,0,0,0,11.10,11.10,11.10,11.10
20/05/2021,11.10,11.10,10.03,0.00 (0.00 %)," ",0,0,0,0,11.10,11.1,11.10,11.10
19/05/2021,11.10,11.10,10.03,0.00 (0.00 %)," ",0,0,0,0,11.10,11.10,11.10,11.10
18/05/2021,11.10,11.10,10.03,0.00 (0.00 %)," ",0,0,0,0,11.10,11.1,11.10,11.10
17/05/2021,11.10,11.10,10.03,0.00 (0.00 %)," ",0,0,0,0,11.10,11.10,11.10,11.10
14/05/2021,11.10,11.10,10.03,0.00 (0.00 %)," ",0,0,0,0,11.10,11.1,11.10,11.10
13/05/2021,11.10,11.10,10.03,0.00 (0.00 %)," ",0,0,0,0,11.10,11.10,11.10,11.10
12/05/2021,11.10,11.10,10.03,0.00 (0.00 %)," ",0,0,0,0,11.10,11.1,11.10,11.10
11/05/2021,11.10,11.10,10.03,0.00 (0.00 %)," ",0,0,0,0,11.10,11.10,11.10,11.10
10/05/2021,11.10,11.10,10.03,0.00 (0.00 %)," ",35,"332,500",0,0,11.10,11.1,11.10,11.10
07/05/2021,10.03,11.10,10.03,-7.40 (-40.00 %)," ","7,700","85,470,000",0,0,18.50,11.10,11.10,11.10
06/05/2021,18.50,18.50,16.71,0.00 (0.00 %)," ",0,0,0,0,18.50,18.5,18.50,18.50
05/05/2021,18.50,18.50,16.71,0.00 (0.00 %)," ",0,0,0,0,18.50,18.50,18.50,18.50
04/05/2021,18.50,18.50,16.71,0.00 (0.00 %)," ",0,0,0,0,18.50,18.5,18.50,18.50
29/04/2021,18.50,18.50,16.71,0.00 (0.00 %)," ",0,0,0,0,18.50,18.50,18.50,18.50
28/04/2021,18.50,18.50,16.71,0.00 (0.00 %)," ",0,0,0,0,18.50,18.5,18.50,18.50
27/04/2021,18.50,18.50,16.71,0.00 (0.00 %)," ",0,0,0,0,18.50,18.50,18.50,18.50
26/04/2021,18.50,18.50,16.71,0.00 (0.00 %)," ",0,0,0,0,18.50,18.5,18.50,18.50
23/04/2021,18.50,18.50,16.71,0.00 (0.00 %)," ",0,0,0,0,18.50,18.50,18.50,18.50
22/04/2021,18.50,18.50,16.71,0.00 (0.00 %)," ",0,0,0,0,18.50,18.5,18.50,18.50
20/04/2021,18.50,18.50,16.71,0.00 (0.00 %)," ",0,0,0,0,18.50,18.50,18.50,18.50
19/04/2021,18.50,18.50,16.71,0.00 (0.00 %)," ",0,0,0,0,18.50,18.5,18.50,18.50
16/04/2021,18.50,18.50,16.71,0.00 (0.00 %)," ",0,0,0,0,18.50,18.50,18.50,18.50
15/04/2021,16.71,18.50,16.71,0.00 (0.00 %)," ",0,0,0,0,18.50,18.5,18.50,18.50
14/04/2021,18.50,18.50,16.71,0.00 (0.00 %)," ",0,0,0,0,18.50,18.50,18.50,18.50
13/04/2021,18.50,18.50,16.71,0.00 (0.00 %)," ",0,0,0,0,18.50,18.5,18.50,18.50
12/04/2021,18.50,18.50,16.71,0.00 (0.00 %)," ",0,0,0,0,18.50,18.50,18.50,18.50
09/04/2021,18.50,18.50,16.71,0.00 (0.00 %)," ",0,0,0,0,18.50,18.5,18.50,18.50
08/04/2021,18.50,18.50,16.71,0.00 (0.00 %)," ",0,0,0,0,18.50,18.50,18.50,18.50
07/04/2021,18.50,18.50,16.71,0.00 (0.00 %)," ",0,0,0,0,18.50,18.5,18.50,18.50
06/04/2021,18.50,18.50,16.71,0.00 (0.00 %)," ",0,0,0,0,18.50,18.50,18.50,18.50
05/04/2021,18.50,18.50,16.71,0.00 (0.00 %)," ",0,0,0,0,18.50,18.5,18.50,18.50
02/04/2021,18.50,18.50,16.71,0.00 (0.00 %)," ",0,0,0,0,18.50,18.50,18.50,18.50
01/04/2021,18.50,18.50,16.71,0.00 (0.00 %)," ",0,0,0,0,18.50,18.5,18.50,18.50
31/03/2021,18.50,18.50,16.71,0.00 (0.00 %)," ",0,0,0,0,18.50,18.50,18.50,18.50
30/03/2021,18.50,18.50,16.71,0.00 (0.00 %)," ",0,0,0,0,18.50,18.5,18.50,18.50
29/03/2021,18.50,18.50,16.71,0.00 (0.00 %)," ",0,0,0,0,18.50,18.50,18.50,18.50
26/03/2021,18.50,18.50,16.71,0.00 (0.00 %)," ",0,0,0,0,18.50,18.5,18.50,18.50
25/03/2021,18.50,18.50,16.71,0.00 (0.00 %)," ",0,0,0,0,18.50,18.50,18.50,18.50
24/03/2021,18.50,18.50,16.71,0.00 (0.00 %)," ",0,0,0,0,18.50,18.5,18.50,18.50
23/03/2021,18.50,18.50,16.71,0.00 (0.00 %)," ",0,0,0,0,18.50,18.50,18.50,18.50
22/03/2021,18.50,18.50,16.71,0.00 (0.00 %)," ",0,0,0,0,18.50,18.5,18.50,18.50
19/03/2021,18.50,18.50,16.71,0.00 (0.00 %)," ",0,0,0,0,18.50,18.50,18.50,18.50
18/03/2021,18.50,18.50,16.71,0.00 (0.00 %)," ",0,0,0,0,18.50,18.5,18.50,18.50
17/03/2021,18.50,18.50,16.71,0.00 (0.00 %)," ",0,0,0,0,18.50,18.50,18.50,18.50
16/03/2021,18.50,18.50,16.71,0.00 (0.00 %)," ",0,0,0,0,18.50,18.5,18.50,18.50
15/03/2021,18.50,18.50,16.71,0.00 (0.00 %)," ",0,0,0,0,18.50,18.50,18.50,18.50
12/03/2021,18.50,18.50,16.71,0.00 (0.00 %)," ",0,0,0,0,18.50,18.5,18.50,18.50
11/03/2021,18.50,18.50,16.71,0.00 (0.00 %)," ",0,0,0,0,18.50,18.50,18.50,18.50
10/03/2021,18.50,18.50,16.71,0.00 (0.00 %)," ",0,0,0,0,18.50,18.5,18.50,18.50
09/03/2021,18.50,18.50,16.71,0.00 (0.00 %)," ",0,0,0,0,18.50,18.50,18.50,18.50
05/03/2021,18.50,18.50,16.71,0.00 (0.00 %)," ",0,0,0,0,18.50,18.5,18.50,18.50
04/03/2021,18.50,18.50,16.71,0.00 (0.00 %)," ",0,0,0,0,18.50,18.50,18.50,18.50
03/03/2021,18.50,18.50,16.71,0.00 (0.00 %)," ",0,0,0,0,18.50,18.5,18.50,18.50
02/03/2021,18.50,18.50,16.71,0.00 (0.00 %)," ",0,0,0,0,18.50,18.50,18.50,18.50
01/03/2021,18.50,18.50,16.71,0.00 (0.00 %)," ",0,0,0,0,18.50,18.5,18.50,18.50
26/02/2021,18.50,18.50,16.71,0.00 (0.00 %)," ",0,0,0,0,18.50,18.50,18.50,18.50
25/02/2021,18.50,18.50,16.71,0.00 (0.00 %)," ",0,0,0,0,18.50,18.5,18.50,18.50
24/02/2021,18.50,18.50,16.71,0.00 (0.00 %)," ",0,0,0,0,18.50,18.50,18.50,18.50
23/02/2021,18.50,18.50,16.71,0.00 (0.00 %)," ",0,0,0,0,18.50,18.5,18.50,18.50
22/02/2021,18.50,18.50,16.71,0.00 (0.00 %)," ",0,0,0,0,18.50,18.50,18.50,18.50
19/02/2021,18.50,18.50,16.71,0.00 (0.00 %)," ",0,0,0,0,18.50,18.5,18.50,18.50
18/02/2021,18.50,18.50,16.71,0.00 (0.00 %)," ",0,0,0,0,18.50,18.50,18.50,18.50
17/02/2021,18.50,18.50,16.71,0.00 (0.00 %)," ",0,0,0,0,18.50,18.5,18.50,18.50
05/02/2021,18.50,18.50,16.71,0.00 (0.00 %)," ",0,0,0,0,18.50,18.50,18.50,18.50
04/02/2021,18.50,18.50,16.71,0.00 (0.00 %)," ",0,0,0,0,18.50,18.5,18.50,18.50
03/02/2021,18.50,18.50,16.71,0.00 (0.00 %)," ",0,0,0,0,18.50,18.50,18.50,18.50
02/02/2021,18.50,18.50,16.71,0.00 (0.00 %)," ",0,0,0,0,18.50,18.5,18.50,18.50
01/02/2021,18.50,18.50,16.71,0.00 (0.00 %)," ",0,0,0,0,18.50,18.50,18.50,18.50
29/01/2021,18.50,18.50,16.71,0.00 (0.00 %)," ",0,0,0,0,18.50,18.5,18.50,18.50
28/01/2021,18.50,18.50,16.71,0.00 (0.00 %)," ",0,0,0,0,18.50,18.50,18.50,18.50
27/01/2021,18.50,18.50,16.71,0.00 (0.00 %)," ",0,0,0,0,18.50,18.5,18.50,18.50
26/01/2021,18.50,18.50,16.71,0.00 (0.00 %)," ",0,0,0,0,18.50,18.50,18.50,18.50
25/01/2021,18.50,18.50,16.71,0.00 (0.00 %)," ",0,0,0,0,18.50,18.5,18.50,18.50
22/01/2021,18.50,18.50,16.71,0.00 (0.00 %)," ",0,0,0,0,18.50,18.50,18.50,18.50
21/01/2021,18.50,18.50,16.71,0.00 (0.00 %)," ",0,0,0,0,18.50,18.5,18.50,18.50
20/01/2021,18.50,18.50,16.71,0.00 (0.00 %)," ",0,0,0,0,18.50,18.50,18.50,18.50
19/01/2021,18.50,18.50,16.71,0.00 (0.00 %)," ",0,0,0,0,18.50,18.5,18.50,18.50
18/01/2021,18.50,18.50,16.71,0.00 (0.00 %)," ",0,0,0,0,18.50,18.50,18.50,18.50
15/01/2021,18.50,18.50,16.71,0.00 (0.00 %)," ",0,0,0,0,18.50,18.5,18.50,18.50
14/01/2021,18.50,18.50,16.71,0.00 (0.00 %)," ",0,0,0,0,18.50,18.50,18.50,18.50
13/01/2021,18.50,18.50,16.71,0.00 (0.00 %)," ",0,0,0,0,18.50,18.5,18.50,18.50
12/01/2021,18.50,18.50,16.71,0.00 (0.00 %)," ",0,0,0,0,18.50,18.50,18.50,18.50
11/01/2021,18.50,18.50,16.71,0.00 (0.00 %)," ",0,0,0,0,18.50,18.5,18.50,18.50
08/01/2021,18.50,18.50,16.71,0.00 (0.00 %)," ",0,0,0,0,18.50,18.50,18.50,18.50
07/01/2021,18.50,18.50,16.71,0.00 (0.00 %)," ",0,0,0,0,18.50,18.5,18.50,18.50
06/01/2021,18.50,18.50,16.71,0.00 (0.00 %)," ",0,0,0,0,18.50,18.50,18.50,18.50
05/01/2021,18.50,18.50,16.71,0.00 (0.00 %)," ",0,0,0,0,18.50,18.5,18.50,18.50
04/01/2021,18.50,18.50,16.71,0.00 (0.00 %)," ",0,0,0,0,18.50,18.50,18.50,18.50
31/12/2020,18.50,18.50,16.71,0.00 (0.00 %)," ",0,0,0,0,18.50,18.5,18.50,18.50
30/12/2020,16.71,18.50,16.71,0.00 (0.00 %)," ",0,0,0,0,18.50,18.50,18.50,18.50
29/12/2020,18.50,18.50,16.71,0.00 (0.00 %)," ",0,0,0,0,18.50,18.5,18.50,18.50
28/12/2020,18.50,18.50,16.71,0.00 (0.00 %)," ",0,0,0,0,18.50,18.50,18.50,18.50
25/12/2020,18.50,18.50,16.71,0.00 (0.00 %)," ",0,0,0,0,18.50,18.5,18.50,18.50
24/12/2020,18.50,18.50,16.71,0.00 (0.00 %)," ",0,0,0,0,18.50,18.50,18.50,18.50
23/12/2020,18.50,18.50,16.71,0.00 (0.00 %)," ",0,0,0,0,18.50,18.5,18.50,18.50
22/12/2020,18.50,18.50,16.71,0.00 (0.00 %)," ",0,0,0,0,18.50,18.50,18.50,18.50
21/12/2020,18.50,18.50,16.71,0.00 (0.00 %)," ",0,0,0,0,18.50,18.5,18.50,18.50
18/12/2020,18.50,18.50,16.71,0.00 (0.00 %)," ",0,0,0,0,18.50,18.50,18.50,18.50
17/12/2020,18.50,18.50,16.71,0.00 (0.00 %)," ",0,0,0,0,18.50,18.5,18.50,18.50
16/12/2020,18.50,18.50,16.71,0.00 (0.00 %)," ",0,0,0,0,18.50,18.50,18.50,18.50
15/12/2020,18.50,18.50,16.71,0.00 (0.00 %)," ",0,0,0,0,18.50,18.5,18.50,18.50
14/12/2020,18.50,18.50,16.71,0.00 (0.00 %)," ",0,0,0,0,18.50,18.50,18.50,18.50
11/12/2020,18.50,18.50,16.71,0.00 (0.00 %)," ",0,0,0,0,18.50,18.5,18.50,18.50
10/12/2020,18.50,18.50,16.71,0.00 (0.00 %)," ",0,0,0,0,18.50,18.50,18.50,18.50
09/12/2020,18.50,18.50,16.71,0.00 (0.00 %)," ",0,0,0,0,18.50,18.5,18.50,18.50
08/12/2020,18.50,18.50,16.71,0.00 (0.00 %)," ",0,0,0,0,18.50,18.50,18.50,18.50
07/12/2020,18.50,18.50,16.71,0.00 (0.00 %)," ",0,0,0,0,18.50,18.5,18.50,18.50
04/12/2020,18.50,18.50,16.71,0.00 (0.00 %)," ",0,0,0,0,18.50,18.50,18.50,18.50
03/12/2020,18.50,18.50,16.71,0.00 (0.00 %)," ",0,0,0,0,18.50,18.5,18.50,18.50
02/12/2020,18.50,18.50,16.71,0.00 (0.00 %)," ",0,0,0,0,18.50,18.50,18.50,18.50
01/12/2020,18.50,18.50,16.71,0.00 (0.00 %)," ",0,0,0,0,18.50,18.5,18.50,18.50
30/11/2020,18.50,18.50,16.71,0.00 (0.00 %)," ",0,0,0,0,18.50,18.50,18.50,18.50
26/11/2020,18.50,18.50,16.71,0.00 (0.00 %)," ",0,0,0,0,18.50,18.5,18.50,18.50
25/11/2020,18.50,18.50,16.71,0.00 (0.00 %)," ",0,0,0,0,18.50,18.50,18.50,18.50
24/11/2020,18.50,18.50,16.71,0.00 (0.00 %)," ",0,0,0,0,18.50,18.5,18.50,18.50
23/11/2020,18.50,18.50,16.71,0.00 (0.00 %)," ",0,0,0,0,18.50,18.50,18.50,18.50
20/11/2020,18.50,18.50,16.71,0.00 (0.00 %)," ",0,0,0,0,18.50,18.5,18.50,18.50
19/11/2020,18.50,18.50,16.71,0.00 (0.00 %)," ",0,0,0,0,18.50,18.50,18.50,18.50
18/11/2020,18.50,18.50,16.71,0.00 (0.00 %)," ",0,0,0,0,18.50,18.5,18.50,18.50
17/11/2020,18.50,18.50,16.71,0.00 (0.00 %)," ",0,0,0,0,18.50,18.50,18.50,18.50
16/11/2020,18.50,18.50,16.71,0.00 (0.00 %)," ",0,0,0,0,18.50,18.5,18.50,18.50
13/11/2020,18.50,18.50,16.71,0.00 (0.00 %)," ",0,0,0,0,18.50,18.50,18.50,18.50
12/11/2020,18.50,18.50,16.71,0.00 (0.00 %)," ",0,0,0,0,18.50,18.5,18.50,18.50
11/11/2020,18.50,18.50,16.71,0.00 (0.00 %)," ",0,0,0,0,18.50,18.50,18.50,18.50
10/11/2020,18.50,18.50,16.71,0.00 (0.00 %)," ",0,0,0,0,18.50,18.5,18.50,18.50
09/11/2020,18.50,18.50,16.71,0.00 (0.00 %)," ",0,0,0,0,18.50,18.50,18.50,18.50
06/11/2020,18.50,18.50,16.71,0.00 (0.00 %)," ",0,0,0,0,18.50,18.5,18.50,18.50
05/11/2020,18.50,18.50,16.71,0.00 (0.00 %)," ",0,0,0,0,18.50,18.50,18.50,18.50
04/11/2020,18.50,18.50,16.71,0.00 (0.00 %)," ",0,0,0,0,18.50,18.5,18.50,18.50
03/11/2020,18.50,18.50,16.71,0.00 (0.00 %)," ",0,0,0,0,18.50,18.50,18.50,18.50
02/11/2020,18.50,18.50,16.71,0.00 (0.00 %)," ",0,0,0,0,18.50,18.5,18.50,18.50
30/10/2020,18.50,18.50,16.71,0.00 (0.00 %)," ",0,0,0,0,18.50,18.50,18.50,18.50
29/10/2020,18.50,18.50,16.71,0.00 (0.00 %)," ",0,0,0,0,18.50,18.5,18.50,18.50
28/10/2020,18.50,18.50,16.71,0.00 (0.00 %)," ",0,0,0,0,18.50,18.50,18.50,18.50
27/10/2020,18.50,18.50,16.71,0.00 (0.00 %)," ",0,0,0,0,18.50,18.5,18.50,18.50
26/10/2020,18.50,18.50,16.71,0.00 (0.00 %)," ",0,0,0,0,18.50,18.50,18.50,18.50
23/10/2020,18.50,18.50,16.71,0.00 (0.00 %)," ",0,0,0,0,18.50,18.5,18.50,18.50
22/10/2020,18.50,18.50,16.71,0.00 (0.00 %)," ",0,0,0,0,18.50,18.50,18.50,18.50
21/10/2020,18.50,18.50,16.71,0.00 (0.00 %)," ",0,0,0,0,18.50,18.5,18.50,18.50
20/10/2020,18.50,18.50,16.71,0.00 (0.00 %)," ",0,0,0,0,18.50,18.50,18.50,18.50
19/10/2020,18.50,18.50,16.71,0.00 (0.00 %)," ",0,0,0,0,18.50,18.5,18.50,18.50
16/10/2020,18.50,18.50,16.71,0.00 (0.00 %)," ",0,0,0,0,18.50,18.50,18.50,18.50
15/10/2020,18.50,18.50,16.71,0.00 (0.00 %)," ",0,0,0,0,18.50,18.5,18.50,18.50
14/10/2020,18.50,18.50,16.71,0.00 (0.00 %)," ",0,0,0,0,18.50,18.50,18.50,18.50
13/10/2020,18.50,18.50,16.71,0.00 (0.00 %)," ",0,0,0,0,18.50,18.5,18.50,18.50
12/10/2020,18.50,18.50,16.71,0.00 (0.00 %)," ",0,0,0,0,18.50,18.50,18.50,18.50
09/10/2020,18.50,18.50,16.71,0.00 (0.00 %)," ",0,0,0,0,18.50,18.5,18.50,18.50
08/10/2020,18.50,18.50,16.71,0.00 (0.00 %)," ",0,0,0,0,18.50,18.50,18.50,18.50
07/10/2020,18.50,18.50,16.71,0.00 (0.00 %)," ",0,0,0,0,18.50,18.5,18.50,18.50
06/10/2020,18.50,18.50,16.71,0.00 (0.00 %)," ",0,0,0,0,18.50,18.50,18.50,18.50
05/10/2020,18.50,18.50,16.71,0.00 (0.00 %)," ",0,0,0,0,18.50,18.5,18.50,18.50
02/10/2020,18.50,18.50,16.71,0.00 (0.00 %)," ",0,0,0,0,18.50,18.50,18.50,18.50
01/10/2020,18.50,18.50,16.71,0.00 (0.00 %)," ",0,0,0,0,18.50,18.5,18.50,18.50
30/09/2020,18.50,18.50,16.71,0.00 (0.00 %)," ",0,0,0,0,18.50,18.50,18.50,18.50
29/09/2020,18.50,18.50,16.71,0.00 (0.00 %)," ",0,0,0,0,18.50,18.5,18.50,18.50
28/09/2020,18.50,18.50,16.71,0.00 (0.00 %)," ",0,0,0,0,18.50,18.50,18.50,18.50
25/09/2020,18.50,18.50,16.71,0.00 (0.00 %)," ",0,0,0,0,18.50,18.5,18.50,18.50
24/09/2020,18.50,18.50,16.71,0.00 (0.00 %)," ",0,0,0,0,18.50,18.50,18.50,18.50
23/09/2020,18.50,18.50,16.71,0.00 (0.00 %)," ",0,0,0,0,18.50,18.5,18.50,18.50
22/09/2020,18.50,18.50,16.71,0.00 (0.00 %)," ",0,0,0,0,18.50,18.50,18.50,18.50
21/09/2020,18.50,18.50,16.71,0.00 (0.00 %)," ",0,0,0,0,18.50,18.5,18.50,18.50
18/09/2020,18.50,18.50,16.71,0.00 (0.00 %)," ",0,0,0,0,18.50,18.50,18.50,18.50
17/09/2020,18.50,18.50,16.71,0.00 (0.00 %)," ",0,0,0,0,18.50,18.5,18.50,18.50
16/09/2020,18.50,18.50,16.71,0.00 (0.00 %)," ",0,0,0,0,18.50,18.50,18.50,18.50
15/09/2020,18.50,18.50,16.71,0.00 (0.00 %)," ",0,0,0,0,18.50,18.5,18.50,18.50
14/09/2020,18.50,18.50,16.71,0.00 (0.00 %)," ",0,0,0,0,18.50,18.50,18.50,18.50
11/09/2020,18.50,18.50,16.71,0.00 (0.00 %)," ",0,0,0,0,18.50,18.5,18.50,18.50
10/09/2020,18.50,18.50,16.71,0.00 (0.00 %)," ",0,0,0,0,18.50,18.50,18.50,18.50
09/09/2020,18.50,18.50,16.71,0.00 (0.00 %)," ",0,0,0,0,18.50,18.5,18.50,18.50
08/09/2020,18.50,18.50,16.71,0.00 (0.00 %)," ",0,0,0,0,18.50,18.50,18.50,18.50
07/09/2020,18.50,18.50,16.71,0.00 (0.00 %)," ",0,0,0,0,18.50,18.5,18.50,18.50
04/09/2020,18.50,18.50,16.71,0.00 (0.00 %)," ",0,0,0,0,18.50,18.50,18.50,18.50
03/09/2020,18.50,18.50,16.71,0.00 (0.00 %)," ",0,0,0,0,18.50,18.5,18.50,18.50
01/09/2020,18.50,18.50,16.71,0.00 (0.00 %)," ",0,0,0,0,18.50,18.50,18.50,18.50
31/08/2020,18.50,18.50,16.71,0.00 (0.00 %)," ",0,0,0,0,18.50,18.5,18.50,18.50
28/08/2020,18.50,18.50,16.71,0.00 (0.00 %)," ",0,0,0,0,18.50,18.50,18.50,18.50
27/08/2020,18.50,18.50,16.71,0.00 (0.00 %)," ",0,0,0,0,18.50,18.5,18.50,18.50
26/08/2020,18.50,18.50,16.71,0.00 (0.00 %)," ",0,0,0,0,18.50,18.50,18.50,18.50
25/08/2020,18.50,18.50,16.71,0.00 (0.00 %)," ",0,0,0,0,18.50,18.5,18.50,18.50
24/08/2020,18.50,18.50,16.71,0.00 (0.00 %)," ",0,0,0,0,18.50,18.50,18.50,18.50
21/08/2020,18.50,18.50,16.71,0.00 (0.00 %)," ",0,0,0,0,18.50,18.5,18.50,18.50
20/08/2020,18.50,18.50,16.71,0.00 (0.00 %)," ",0,0,0,0,18.50,18.50,18.50,18.50
19/08/2020,18.50,18.50,16.71,0.00 (0.00 %)," ",0,0,0,0,18.50,18.5,18.50,18.50
18/08/2020,18.50,18.50,16.71,0.00 (0.00 %)," ",0,0,0,0,18.50,18.50,18.50,18.50
17/08/2020,18.50,18.50,16.71,0.00 (0.00 %)," ",0,0,0,0,18.50,18.5,18.50,18.50
14/08/2020,18.50,18.50,16.71,0.00 (0.00 %)," ",0,0,0,0,18.50,18.50,18.50,18.50
13/08/2020,18.50,18.50,16.71,0.00 (0.00 %)," ",0,0,0,0,18.50,18.5,18.50,18.50
12/08/2020,18.50,18.50,16.71,0.00 (0.00 %)," ",0,0,0,0,18.50,18.50,18.50,18.50
11/08/2020,18.50,18.50,16.71,0.00 (0.00 %)," ",0,0,0,0,18.50,18.5,18.50,18.50
10/08/2020,18.50,18.50,16.71,0.00 (0.00 %)," ",0,0,0,0,18.50,18.50,18.50,18.50
07/08/2020,18.50,18.50,16.71,0.00 (0.00 %)," ",0,0,0,0,18.50,18.5,18.50,18.50
06/08/2020,18.50,18.50,16.71,0.00 (0.00 %)," ",0,0,0,0,18.50,18.50,18.50,18.50
05/08/2020,18.50,18.50,16.71,0.00 (0.00 %)," ",0,0,0,0,18.50,18.5,18.50,18.50
04/08/2020,18.50,18.50,16.71,0.00 (0.00 %)," ",0,0,0,0,18.50,18.50,18.50,18.50
03/08/2020,18.50,18.50,16.71,0.00 (0.00 %)," ",0,0,0,0,18.50,18.5,18.50,18.50
31/07/2020,18.50,18.50,16.71,0.00 (0.00 %)," ",0,0,0,0,18.50,18.50,18.50,18.50
30/07/2020,18.50,18.50,16.71,0.00 (0.00 %)," ",0,0,0,0,18.50,18.5,18.50,18.50
29/07/2020,18.50,18.50,16.71,0.00 (0.00 %)," ",0,0,0,0,18.50,18.50,18.50,18.50
28/07/2020,18.50,18.50,16.71,0.00 (0.00 %)," ",0,0,0,0,18.50,18.5,18.50,18.50
27/07/2020,18.50,18.50,16.71,0.00 (0.00 %)," ",0,0,0,0,18.50,18.50,18.50,18.50
24/07/2020,18.50,18.50,16.71,0.00 (0.00 %)," ",0,0,0,0,18.50,18.5,18.50,18.50
23/07/2020,18.50,18.50,16.71,0.00 (0.00 %)," ",0,0,0,0,18.50,18.50,18.50,18.50
22/07/2020,18.50,18.50,16.71,0.00 (0.00 %)," ",0,0,0,0,18.50,18.5,18.50,18.50
21/07/2020,18.50,18.50,16.71,0.00 (0.00 %)," ",0,0,0,0,18.50,18.50,18.50,18.50
20/07/2020,18.50,18.50,16.71,0.00 (0.00 %)," ",0,0,0,0,18.50,18.5,18.50,18.50
17/07/2020,18.50,18.50,16.71,0.00 (0.00 %)," ",0,0,0,0,18.50,18.50,18.50,18.50
16/07/2020,18.50,18.50,16.71,0.00 (0.00 %)," ",0,0,0,0,18.50,18.5,18.50,18.50
15/07/2020,18.50,18.50,16.71,0.00 (0.00 %)," ",0,0,0,0,18.50,18.50,18.50,18.50
14/07/2020,18.50,18.50,16.71,0.00 (0.00 %)," ",0,0,0,0,18.50,18.5,18.50,18.50
13/07/2020,20.00,20.00,18.06,0.00 (0.00 %)," ",0,0,0,0,20.00,20.00,20.00,20.00
10/07/2020,20.00,20.00,18.06,0.00 (0.00 %)," ",0,0,0,0,20.00,20.0,20.00,20.00
09/07/2020,20.00,20.00,18.06,0.00 (0.00 %)," ",0,0,0,0,20.00,20.00,20.00,20.00
08/07/2020,20.00,20.00,18.06,0.00 (0.00 %)," ",0,0,0,0,20.00,20.0,20.00,20.00
07/07/2020,20.00,20.00,18.06,0.00 (0.00 %)," ",0,0,0,0,20.00,20.00,20.00,20.00
06/07/2020,20.00,20.00,18.06,0.00 (0.00 %)," ",0,0,0,0,20.00,20.0,20.00,20.00
03/07/2020,20.00,20.00,18.06,0.00 (0.00 %)," ",0,0,0,0,20.00,20.00,20.00,20.00
02/07/2020,20.00,20.00,18.06,0.00 (0.00 %)," ",0,0,0,0,20.00,20.0,20.00,20.00
01/07/2020,20.00,20.00,18.06,0.00 (0.00 %)," ",0,0,0,0,20.00,20.00,20.00,20.00
30/06/2020,20.00,20.00,18.06,0.00 (0.00 %)," ",0,0,0,0,20.00,20.0,20.00,20.00
29/06/2020,20.00,20.00,18.06,0.00 (0.00 %)," ",0,0,0,0,20.00,20.00,20.00,20.00
26/06/2020,18.06,20.00,18.06,0.00 (0.00 %)," ",0,0,0,0,20.00,20.0,20.00,20.00
25/06/2020,20.00,20.00,18.06,0.00 (0.00 %)," ",0,0,0,0,20.00,20.00,20.00,20.00
24/06/2020,20.00,20.00,18.06,0.00 (0.00 %)," ",0,0,0,0,20.00,20.0,20.00,20.00
23/06/2020,20.00,20.00,18.06,0.00 (0.00 %)," ",0,0,0,0,20.00,20.00,20.00,20.00
22/06/2020,20.00,20.00,18.06,0.00 (0.00 %)," ",0,0,0,0,20.00,20.0,20.00,20.00
19/06/2020,20.00,20.00,18.06,0.00 (0.00 %)," ",0,0,0,0,20.00,20.00,20.00,20.00
18/06/2020,20.00,20.00,18.06,0.00 (0.00 %)," ",0,0,0,0,20.00,20.0,20.00,20.00
17/06/2020,20.00,20.00,18.06,0.00 (0.00 %)," ",0,0,0,0,20.00,20.00,20.00,20.00
16/06/2020,20.00,20.00,18.06,0.00 (0.00 %)," ",0,0,0,0,20.00,20.0,20.00,20.00
15/06/2020,20.00,20.00,18.06,0.00 (0.00 %)," ",0,0,0,0,20.00,20.00,20.00,20.00
12/06/2020,20.00,20.00,18.06,0.00 (0.00 %)," ",0,0,0,0,20.00,20.0,20.00,20.00
11/06/2020,20.00,20.00,18.06,0.00 (0.00 %)," ",0,0,0,0,20.00,20.00,20.00,20.00
10/06/2020,20.00,20.00,18.06,0.00 (0.00 %)," ",0,0,0,0,20.00,20.0,20.00,20.00
09/06/2020,20.00,20.00,18.06,0.00 (0.00 %)," ",0,0,0,0,20.00,20.00,20.00,20.00
08/06/2020,20.00,20.00,18.06,0.00 (0.00 %)," ",0,0,0,0,20.00,20.0,20.00,20.00
05/06/2020,20.00,20.00,18.06,0.00 (0.00 %)," ",0,0,0,0,20.00,20.00,20.00,20.00
04/06/2020,20.00,20.00,18.06,0.00 (0.00 %)," ",0,0,0,0,20.00,20.0,20.00,20.00
03/06/2020,20.00,20.00,18.06,0.00 (0.00 %)," ",0,0,0,0,20.00,20.00,20.00,20.00
02/06/2020,20.00,20.00,18.06,0.00 (0.00 %)," ",0,0,0,0,20.00,20.0,20.00,20.00
01/06/2020,20.00,20.00,18.06,0.00 (0.00 %)," ",70,"1,400,000",0,0,20.00,20.00,20.00,20.00
29/05/2020,18.06,20.00,18.06,-4.70 (-19.03 %)," ","1,600","32,000,000",0,0,24.70,20.0,20.00,20.00
28/05/2020,24.70,24.70,22.31,0.00 (0.00 %)," ",0,0,0,0,24.70,24.70,24.70,24.70
27/05/2020,24.70,24.70,22.31,0.00 (0.00 %)," ",0,0,0,0,24.70,24.7,24.70,24.70
26/05/2020,24.70,24.70,22.31,0.00 (0.00 %)," ",0,0,0,0,24.70,24.70,24.70,24.70
25/05/2020,24.70,24.70,22.31,0.00 (0.00 %)," ",0,0,0,0,24.70,24.7,24.70,24.70
22/05/2020,24.70,24.70,22.31,0.00 (0.00 %)," ",0,0,0,0,24.70,24.70,24.70,24.70
21/05/2020,24.70,24.70,22.31,0.00 (0.00 %)," ",0,0,0,0,24.70,24.7,24.70,24.70
20/05/2020,24.70,24.70,22.31,0.00 (0.00 %)," ",0,0,0,0,24.70,24.70,24.70,24.70
19/05/2020,24.70,24.70,22.31,0.00 (0.00 %)," ",0,0,0,0,24.70,24.7,24.70,24.70
18/05/2020,24.70,24.70,22.31,0.00 (0.00 %)," ",0,0,0,0,24.70,24.70,24.70,24.70
15/05/2020,24.70,24.70,22.31,0.00 (0.00 %)," ",0,0,0,0,24.70,24.7,24.70,24.70
14/05/2020,24.70,24.70,22.31,0.00 (0.00 %)," ",0,0,0,0,24.70,24.70,24.70,24.70
13/05/2020,24.70,24.70,22.31,0.00 (0.00 %)," ",0,0,0,0,24.70,24.7,24.70,24.70
12/05/2020,24.70,24.70,22.31,0.00 (0.00 %)," ",0,0,0,0,24.70,24.70,24.70,24.70
11/05/2020,24.70,24.70,22.31,0.00 (0.00 %)," ",0,0,0,0,24.70,24.7,24.70,24.70
08/05/2020,24.70,24.70,22.31,0.00 (0.00 %)," ",0,0,0,0,24.70,24.70,24.70,24.70
07/05/2020,24.70,24.70,22.31,0.00 (0.00 %)," ",0,0,0,0,24.70,24.7,24.70,24.70
06/05/2020,24.70,24.70,22.31,0.00 (0.00 %)," ",0,0,0,0,24.70,24.70,24.70,24.70
05/05/2020,24.70,24.70,22.31,0.00 (0.00 %)," ",0,0,0,0,24.70,24.7,24.70,24.70
04/05/2020,24.70,24.70,22.31,0.00 (0.00 %)," ",0,0,0,0,24.70,24.70,24.70,24.70
29/04/2020,24.70,24.70,22.31,0.00 (0.00 %)," ",0,0,0,0,24.70,24.7,24.70,24.70
28/04/2020,24.70,24.70,22.31,0.00 (0.00 %)," ",0,0,0,0,24.70,24.70,24.70,24.70
27/04/2020,24.70,24.70,22.31,0.00 (0.00 %)," ",0,0,0,0,24.70,24.7,24.70,24.70
24/04/2020,24.70,24.70,22.31,0.00 (0.00 %)," ",0,0,0,0,24.70,24.70,24.70,24.70
23/04/2020,24.70,24.70,22.31,0.00 (0.00 %)," ",0,0,0,0,24.70,24.7,24.70,24.70
22/04/2020,24.70,24.70,22.31,0.00 (0.00 %)," ",0,0,0,0,24.70,24.70,24.70,24.70
21/04/2020,24.70,24.70,22.31,0.00 (0.00 %)," ",0,0,0,0,24.70,24.7,24.70,24.70
20/04/2020,24.70,24.70,22.31,0.00 (0.00 %)," ",0,0,0,0,24.70,24.70,24.70,24.70
17/04/2020,24.70,24.70,22.31,0.00 (0.00 %)," ",0,0,0,0,24.70,24.7,24.70,24.70
16/04/2020,24.70,24.70,22.31,0.00 (0.00 %)," ",0,0,0,0,24.70,24.70,24.70,24.70
15/04/2020,24.70,24.70,22.31,0.00 (0.00 %)," ",0,0,0,0,24.70,24.7,24.70,24.70
14/04/2020,24.70,24.70,22.31,0.00 (0.00 %)," ",0,0,0,0,24.70,24.70,24.70,24.70
13/04/2020,24.70,24.70,22.31,0.00 (0.00 %)," ",0,0,0,0,24.70,24.7,24.70,24.70
10/04/2020,24.70,24.70,22.31,0.00 (0.00 %)," ",0,0,0,0,24.70,24.70,24.70,24.70
09/04/2020,24.70,24.70,22.31,0.00 (0.00 %)," ",0,0,0,0,24.70,24.7,24.70,24.70
08/04/2020,24.70,24.70,22.31,0.00 (0.00 %)," ",0,0,0,0,24.70,24.70,24.70,24.70
07/04/2020,24.70,24.70,22.31,0.00 (0.00 %)," ",0,0,0,0,24.70,24.7,24.70,24.70
06/04/2020,24.70,24.70,22.31,0.00 (0.00 %)," ",0,0,0,0,24.70,24.70,24.70,24.70
03/04/2020,24.70,24.70,22.31,0.00 (0.00 %)," ",0,0,0,0,24.70,24.7,24.70,24.70
01/04/2020,24.70,24.70,22.31,0.00 (0.00 %)," ",0,0,0,0,24.70,24.70,24.70,24.70
31/03/2020,24.70,24.70,22.31,0.00 (0.00 %)," ",0,0,0,0,24.70,24.7,24.70,24.70
30/03/2020,24.70,24.70,22.31,0.00 (0.00 %)," ",0,0,0,0,24.70,24.70,24.70,24.70
27/03/2020,24.70,24.70,22.31,0.00 (0.00 %)," ",0,0,0,0,24.70,24.7,24.70,24.70
26/03/2020,24.70,24.70,22.31,0.00 (0.00 %)," ",0,0,0,0,24.70,24.70,24.70,24.70
25/03/2020,24.70,24.70,22.31,0.00 (0.00 %)," ",0,0,0,0,24.70,24.7,24.70,24.70
24/03/2020,24.70,24.70,22.31,0.00 (0.00 %)," ",0,0,0,0,24.70,24.70,24.70,24.70
23/03/2020,24.70,24.70,22.31,0.00 (0.00 %)," ",0,0,0,0,24.70,24.7,24.70,24.70
20/03/2020,24.70,24.70,22.31,0.00 (0.00 %)," ",0,0,0,0,24.70,24.70,24.70,24.70
19/03/2020,24.70,24.70,22.31,0.00 (0.00 %)," ",0,0,0,0,24.70,24.7,24.70,24.70
18/03/2020,24.70,24.70,22.31,0.00 (0.00 %)," ",0,0,0,0,24.70,24.70,24.70,24.70
17/03/2020,24.70,24.70,22.31,0.00 (0.00 %)," ",0,0,0,0,24.70,24.7,24.70,24.70
16/03/2020,24.70,24.70,22.31,0.00 (0.00 %)," ",0,0,0,0,24.70,24.70,24.70,24.70
13/03/2020,24.70,24.70,22.31,0.00 (0.00 %)," ",0,0,0,0,24.70,24.7,24.70,24.70
12/03/2020,22.31,24.70,22.31,0.00 (0.00 %)," ",0,0,0,0,24.70,24.70,24.70,24.70
11/03/2020,22.31,24.70,22.31,0.00 (0.00 %)," ",0,0,0,0,24.70,24.7,24.70,24.70
10/03/2020,24.70,24.70,22.31,0.00 (0.00 %)," ",0,0,0,0,24.70,24.70,24.70,24.70
09/03/2020,24.70,24.70,22.31,0.00 (0.00 %)," ",0,0,0,0,24.70,24.7,24.70,24.70
06/03/2020,24.70,24.70,22.31,0.00 (0.00 %)," ",0,0,0,0,24.70,24.70,24.70,24.70
05/03/2020,24.70,24.70,22.31,0.00 (0.00 %)," ",0,0,0,0,24.70,24.7,24.70,24.70
04/03/2020,24.70,24.70,22.31,0.00 (0.00 %)," ",0,0,0,0,24.70,24.70,24.70,24.70
03/03/2020,24.70,24.70,22.31,0.00 (0.00 %)," ",0,0,0,0,24.70,24.7,24.70,24.70
02/03/2020,24.70,24.70,22.31,0.00 (0.00 %)," ",0,0,0,0,24.70,24.70,24.70,24.70
28/02/2020,24.70,24.70,22.31,0.00 (0.00 %)," ",0,0,0,0,24.70,24.7,24.70,24.70
27/02/2020,24.70,24.70,22.31,0.00 (0.00 %)," ",0,0,0,0,24.70,24.70,24.70,24.70
26/02/2020,24.70,24.70,22.31,0.00 (0.00 %)," ",0,0,0,0,24.70,24.7,24.70,24.70
25/02/2020,24.70,24.70,22.31,0.00 (0.00 %)," ",0,0,0,0,24.70,24.70,24.70,24.70
24/02/2020,24.70,24.70,22.31,0.00 (0.00 %)," ",0,0,0,0,24.70,24.7,24.70,24.70
21/02/2020,24.70,24.70,22.31,0.00 (0.00 %)," ",0,0,0,0,24.70,24.70,24.70,24.70
20/02/2020,24.70,24.70,22.31,0.00 (0.00 %)," ",0,0,0,0,24.70,24.7,24.70,24.70
19/02/2020,24.70,24.70,22.31,0.00 (0.00 %)," ",0,0,0,0,24.70,24.70,24.70,24.70
18/02/2020,24.70,24.70,22.31,0.00 (0.00 %)," ",0,0,0,0,24.70,24.7,24.70,24.70
17/02/2020,24.70,24.70,22.31,0.00 (0.00 %)," ",0,0,0,0,24.70,24.70,24.70,24.70
14/02/2020,24.70,24.70,22.31,0.00 (0.00 %)," ",0,0,0,0,24.70,24.7,24.70,24.70
13/02/2020,24.70,24.70,22.31,0.00 (0.00 %)," ",0,0,0,0,24.70,24.70,24.70,24.70
12/02/2020,24.70,24.70,22.31,0.00 (0.00 %)," ",0,0,0,0,24.70,24.7,24.70,24.70
11/02/2020,24.70,24.70,22.31,0.00 (0.00 %)," ",0,0,0,0,24.70,24.70,24.70,24.70
10/02/2020,24.70,24.70,22.31,0.00 (0.00 %)," ",0,0,0,0,24.70,24.7,24.70,24.70
07/02/2020,24.70,24.70,22.31,0.00 (0.00 %)," ",0,0,0,0,24.70,24.70,24.70,24.70
06/02/2020,24.70,24.70,22.31,0.00 (0.00 %)," ",0,0,0,0,24.70,24.7,24.70,24.70
05/02/2020,24.70,24.70,22.31,0.00 (0.00 %)," ",0,0,0,0,24.70,24.70,24.70,24.70
04/02/2020,24.70,24.70,22.31,0.00 (0.00 %)," ",0,0,0,0,24.70,24.7,24.70,24.70
03/02/2020,24.70,24.70,22.31,0.00 (0.00 %)," ",0,0,0,0,24.70,24.70,24.70,24.70
31/01/2020,24.70,24.70,22.31,0.00 (0.00 %)," ",0,0,0,0,24.70,24.7,24.70,24.70
30/01/2020,24.70,24.70,22.31,0.00 (0.00 %)," ",0,0,0,0,24.70,24.70,24.70,24.70
22/01/2020,24.70,24.70,22.31,0.00 (0.00 %)," ",0,0,0,0,24.70,24.7,24.70,24.70
21/01/2020,22.31,24.70,22.31,0.00 (0.00 %)," ",0,0,0,0,24.70,24.70,24.70,24.70
20/01/2020,22.31,24.70,22.31,0.00 (0.00 %)," ",0,0,0,0,24.70,24.7,24.70,24.70
17/01/2020,22.31,24.70,22.31,0.00 (0.00 %)," ",0,0,0,0,24.70,24.70,24.70,24.70
16/01/2020,22.31,24.70,22.31,0.00 (0.00 %)," ",0,0,0,0,24.70,24.7,24.70,24.70
15/01/2020,24.70,24.70,22.31,0.00 (0.00 %)," ",0,0,0,0,24.70,24.70,24.70,24.70
14/01/2020,24.70,24.70,22.31,0.00 (0.00 %)," ",0,0,0,0,24.70,24.7,24.70,24.70
13/01/2020,24.70,24.70,22.31,0.00 (0.00 %)," ",0,0,0,0,24.70,24.70,24.70,24.70
10/01/2020,24.70,24.70,22.31,0.00 (0.00 %)," ",0,0,0,0,24.70,24.7,24.70,24.70
09/01/2020,24.70,24.70,22.31,0.00 (0.00 %)," ",0,0,0,0,24.70,24.70,24.70,24.70
08/01/2020,24.70,24.70,22.31,0.00 (0.00 %)," ",0,0,0,0,24.70,24.7,24.70,24.70
07/01/2020,24.70,24.70,22.31,0.00 (0.00 %)," ",0,0,0,0,24.70,24.70,24.70,24.70
06/01/2020,24.70,24.70,22.31,0.00 (0.00 %)," ",0,0,0,0,24.70,24.7,24.70,24.70
03/01/2020,24.70,24.70,22.31,0.00 (0.00 %)," ",0,0,0,0,24.70,24.70,24.70,24.70
02/01/2020,24.70,24.70,22.31,0.00 (0.00 %)," ",0,0,0,0,24.70,24.7,24.70,24.70
31/12/2019,24.70,24.70,22.31,0.00 (0.00 %)," ",0,0,0,0,24.70,24.70,24.70,24.70
30/12/2019,24.70,24.70,22.31,0.00 (0.00 %)," ",0,0,0,0,24.70,24.7,24.70,24.70
27/12/2019,24.70,24.70,22.31,0.00 (0.00 %)," ",0,0,0,0,24.70,24.70,24.70,24.70
26/12/2019,24.70,24.70,22.31,0.00 (0.00 %)," ",0,0,0,0,24.70,24.7,24.70,24.70
25/12/2019,24.70,24.70,22.31,0.00 (0.00 %)," ",0,0,0,0,24.70,24.70,24.70,24.70
24/12/2019,24.70,24.70,22.31,0.00 (0.00 %)," ",0,0,0,0,24.70,24.7,24.70,24.70
23/12/2019,24.70,24.70,22.31,0.00 (0.00 %)," ",0,0,0,0,24.70,24.70,24.70,24.70
20/12/2019,24.70,24.70,22.31,0.00 (0.00 %)," ",0,0,0,0,24.70,24.7,24.70,24.70
19/12/2019,24.70,24.70,22.31,0.00 (0.00 %)," ",0,0,0,0,24.70,24.70,24.70,24.70
18/12/2019,24.70,24.70,22.31,0.00 (0.00 %)," ",0,0,0,0,24.70,24.7,24.70,24.70
17/12/2019,24.70,24.70,22.31,0.00 (0.00 %)," ",0,0,0,0,24.70,24.70,24.70,24.70
16/12/2019,24.70,24.70,22.31,0.00 (0.00 %)," ",0,0,0,0,24.70,24.7,24.70,24.70
13/12/2019,24.70,24.70,22.31,0.00 (0.00 %)," ",0,0,0,0,24.70,24.70,24.70,24.70
12/12/2019,24.70,24.70,22.31,0.00 (0.00 %)," ",0,0,0,0,24.70,24.7,24.70,24.70
11/12/2019,24.70,24.70,22.31,0.00 (0.00 %)," ",0,0,0,0,24.70,24.70,24.70,24.70
10/12/2019,24.70,24.70,22.31,0.00 (0.00 %)," ",0,0,0,0,24.70,24.7,24.70,24.70
09/12/2019,24.70,24.70,22.31,0.00 (0.00 %)," ",0,0,0,0,24.70,24.70,24.70,24.70
06/12/2019,24.70,24.70,22.31,0.00 (0.00 %)," ",0,0,0,0,24.70,24.7,24.70,24.70
05/12/2019,24.70,24.70,22.31,0.00 (0.00 %)," ",0,0,0,0,24.70,24.70,24.70,24.70
04/12/2019,24.70,24.70,22.31,0.00 (0.00 %)," ",0,0,0,0,24.70,24.7,24.70,24.70
03/12/2019,24.70,24.70,22.31,0.00 (0.00 %)," ",0,0,0,0,24.70,24.70,24.70,24.70
02/12/2019,24.70,24.70,22.31,0.00 (0.00 %)," ",0,0,0,0,24.70,24.7,24.70,24.70
29/11/2019,24.70,24.70,22.31,0.00 (0.00 %)," ",0,0,0,0,24.70,24.70,24.70,24.70
28/11/2019,24.70,24.70,22.31,0.00 (0.00 %)," ",0,0,0,0,24.70,24.7,24.70,24.70
27/11/2019,24.70,24.70,22.31,0.00 (0.00 %)," ",0,0,0,0,24.70,24.70,24.70,24.70
26/11/2019,24.70,24.70,22.31,0.00 (0.00 %)," ",0,0,0,0,24.70,24.7,24.70,24.70
25/11/2019,24.70,24.70,22.31,0.00 (0.00 %)," ",0,0,0,0,24.70,24.70,24.70,24.70
22/11/2019,24.70,24.70,22.31,0.00 (0.00 %)," ",0,0,0,0,24.70,24.7,24.70,24.70
21/11/2019,24.70,24.70,22.31,0.00 (0.00 %)," ",0,0,0,0,24.70,24.70,24.70,24.70
20/11/2019,24.70,24.70,22.31,0.00 (0.00 %)," ",0,0,0,0,24.70,24.7,24.70,24.70
19/11/2019,24.70,24.70,22.31,0.00 (0.00 %)," ",0,0,0,0,24.70,24.70,24.70,24.70
18/11/2019,24.70,24.70,22.31,0.00 (0.00 %)," ",0,0,0,0,24.70,24.7,24.70,24.70
15/11/2019,24.70,24.70,22.31,0.00 (0.00 %)," ",0,0,0,0,24.70,24.70,24.70,24.70
14/11/2019,24.70,24.70,22.31,0.00 (0.00 %)," ",0,0,0,0,24.70,24.7,24.70,24.70
13/11/2019,24.70,24.70,22.31,0.00 (0.00 %)," ",0,0,0,0,24.70,24.70,24.70,24.70
12/11/2019,24.70,24.70,22.31,0.00 (0.00 %)," ",0,0,0,0,24.70,24.7,24.70,24.70
11/11/2019,24.70,24.70,22.31,0.00 (0.00 %)," ",0,0,0,0,24.70,24.70,24.70,24.70
08/11/2019,24.70,24.70,22.31,0.00 (0.00 %)," ",0,0,0,0,24.70,24.7,24.70,24.70
07/11/2019,24.70,24.70,22.31,0.00 (0.00 %)," ",0,0,0,0,24.70,24.70,24.70,24.70
06/11/2019,24.70,24.70,22.31,0.00 (0.00 %)," ",0,0,0,0,24.70,24.7,24.70,24.70
05/11/2019,24.70,24.70,22.31,0.00 (0.00 %)," ",0,0,0,0,24.70,24.70,24.70,24.70
04/11/2019,24.70,24.70,22.31,0.00 (0.00 %)," ",0,0,0,0,24.70,24.7,24.70,24.70
01/11/2019,24.70,24.70,22.31,0.00 (0.00 %)," ",0,0,0,0,24.70,24.70,24.70,24.70
31/10/2019,24.70,24.70,22.31,0.00 (0.00 %)," ",0,0,0,0,24.70,24.7,24.70,24.70
30/10/2019,24.70,24.70,22.31,0.00 (0.00 %)," ",0,0,0,0,24.70,24.70,24.70,24.70
29/10/2019,24.70,24.70,22.31,0.00 (0.00 %)," ",0,0,0,0,24.70,24.7,24.70,24.70
28/10/2019,24.70,24.70,22.31,0.00 (0.00 %)," ",0,0,0,0,24.70,24.70,24.70,24.70
25/10/2019,24.70,24.70,22.31,0.00 (0.00 %)," ",0,0,0,0,24.70,24.7,24.70,24.70
24/10/2019,24.70,24.70,22.31,0.00 (0.00 %)," ",0,0,0,0,24.70,24.70,24.70,24.70
23/10/2019,24.70,24.70,22.31,0.00 (0.00 %)," ",0,0,0,0,24.70,24.7,24.70,24.70
22/10/2019,24.70,24.70,22.31,0.00 (0.00 %)," ",0,0,0,0,24.70,24.70,24.70,24.70
21/10/2019,24.70,24.70,22.31,0.00 (0.00 %)," ",0,0,0,0,24.70,24.7,24.70,24.70
18/10/2019,24.70,24.70,22.31,0.00 (0.00 %)," ",0,0,0,0,24.70,24.70,24.70,24.70
17/10/2019,24.70,24.70,22.31,0.00 (0.00 %)," ",0,0,0,0,24.70,24.7,24.70,24.70
16/10/2019,24.70,24.70,22.31,0.00 (0.00 %)," ",0,0,0,0,24.70,24.70,24.70,24.70
15/10/2019,24.70,24.70,22.31,0.00 (0.00 %)," ",0,0,0,0,24.70,24.7,24.70,24.70
14/10/2019,24.70,24.70,22.31,0.00 (0.00 %)," ",0,0,0,0,24.70,24.70,24.70,24.70
11/10/2019,24.70,24.70,22.31,0.00 (0.00 %)," ",0,0,0,0,24.70,24.7,24.70,24.70
10/10/2019,24.70,24.70,22.31,0.00 (0.00 %)," ",0,0,0,0,24.70,24.70,24.70,24.70
09/10/2019,24.70,24.70,22.31,0.00 (0.00 %)," ",0,0,0,0,24.70,24.7,24.70,24.70
08/10/2019,24.70,24.70,22.31,0.00 (0.00 %)," ",0,0,0,0,24.70,24.70,24.70,24.70
07/10/2019,24.70,24.70,22.31,0.00 (0.00 %)," ",0,0,0,0,24.70,24.7,24.70,24.70
04/10/2019,24.70,24.70,22.31,0.00 (0.00 %)," ",0,0,0,0,24.70,24.70,24.70,24.70
03/10/2019,24.70,24.70,22.31,0.00 (0.00 %)," ",0,0,0,0,24.70,24.7,24.70,24.70
02/10/2019,24.70,24.70,22.31,0.00 (0.00 %)," ",0,0,0,0,24.70,24.70,24.70,24.70
01/10/2019,24.70,24.70,22.31,0.00 (0.00 %)," ",0,0,0,0,24.70,24.7,24.70,24.70
30/09/2019,24.70,24.70,22.31,0.00 (0.00 %)," ",0,0,0,0,24.70,24.70,24.70,24.70
27/09/2019,24.70,24.70,22.31,0.00 (0.00 %)," ",0,0,0,0,24.70,24.7,24.70,24.70
26/09/2019,24.70,24.70,22.31,0.00 (0.00 %)," ",0,0,0,0,24.70,24.70,24.70,24.70
25/09/2019,24.70,24.70,22.31,0.00 (0.00 %)," ",0,0,0,0,24.70,24.7,24.70,24.70
24/09/2019,24.70,24.70,22.31,0.00 (0.00 %)," ",0,0,0,0,24.70,24.70,24.70,24.70
23/09/2019,24.70,24.70,22.31,0.00 (0.00 %)," ",0,0,0,0,24.70,24.7,24.70,24.70
20/09/2019,24.70,24.70,22.31,0.00 (0.00 %)," ",0,0,0,0,24.70,24.70,24.70,24.70
19/09/2019,24.70,24.70,22.31,0.00 (0.00 %)," ",0,0,0,0,24.70,24.7,24.70,24.70
18/09/2019,24.70,24.70,22.31,0.00 (0.00 %)," ",0,0,0,0,24.70,24.70,24.70,24.70
17/09/2019,24.70,24.70,22.31,0.00 (0.00 %)," ",0,0,0,0,24.70,24.7,24.70,24.70
16/09/2019,24.70,24.70,22.31,0.00 (0.00 %)," ",0,0,0,0,24.70,24.70,24.70,24.70
13/09/2019,24.70,24.70,22.31,0.00 (0.00 %)," ",0,0,0,0,24.70,24.7,24.70,24.70
12/09/2019,24.70,24.70,22.31,0.00 (0.00 %)," ",0,0,0,0,24.70,24.70,24.70,24.70
11/09/2019,24.70,24.70,22.31,0.00 (0.00 %)," ",0,0,0,0,24.70,24.7,24.70,24.70
10/09/2019,24.70,24.70,22.31,0.00 (0.00 %)," ",0,0,0,0,24.70,24.70,24.70,24.70
09/09/2019,24.70,24.70,22.31,0.00 (0.00 %)," ",0,0,0,0,24.70,24.7,24.70,24.70
06/09/2019,24.70,24.70,22.31,0.00 (0.00 %)," ",0,0,0,0,24.70,24.70,24.70,24.70
05/09/2019,24.70,24.70,22.31,0.00 (0.00 %)," ",0,0,0,0,24.70,24.7,24.70,24.70
04/09/2019,24.70,24.70,22.31,0.00 (0.00 %)," ",0,0,0,0,24.70,24.70,24.70,24.70
03/09/2019,24.70,24.70,22.31,0.00 (0.00 %)," ",0,0,0,0,24.70,24.7,24.70,24.70
30/08/2019,24.70,24.70,22.31,0.00 (0.00 %)," ",0,0,0,0,24.70,24.70,24.70,24.70
29/08/2019,24.70,24.70,22.31,0.00 (0.00 %)," ",0,0,0,0,24.70,24.7,24.70,24.70
28/08/2019,24.70,24.70,22.31,0.00 (0.00 %)," ",0,0,0,0,24.70,24.70,24.70,24.70
27/08/2019,24.70,24.70,22.31,0.00 (0.00 %)," ",0,0,0,0,24.70,24.7,24.70,24.70
26/08/2019,24.70,24.70,22.31,0.00 (0.00 %)," ",0,0,0,0,24.70,24.70,24.70,24.70
23/08/2019,24.70,24.70,22.31,0.00 (0.00 %)," ",0,0,0,0,24.70,24.7,24.70,24.70
22/08/2019,24.70,24.70,22.31,0.00 (0.00 %)," ",0,0,0,0,24.70,24.70,24.70,24.70
21/08/2019,24.70,24.70,22.31,0.00 (0.00 %)," ",0,0,0,0,24.70,24.7,24.70,24.70
20/08/2019,24.70,24.70,22.31,0.00 (0.00 %)," ",0,0,0,0,24.70,24.70,24.70,24.70
19/08/2019,24.70,24.70,22.31,0.00 (0.00 %)," ",0,0,0,0,24.70,24.7,24.70,24.70
16/08/2019,24.70,24.70,22.31,0.00 (0.00 %)," ",0,0,0,0,24.70,24.70,24.70,24.70
15/08/2019,24.70,24.70,22.31,0.00 (0.00 %)," ",0,0,0,0,24.70,24.7,24.70,24.70
14/08/2019,24.70,24.70,22.31,0.00 (0.00 %)," ",0,0,0,0,24.70,24.70,24.70,24.70
13/08/2019,24.70,24.70,22.31,0.00 (0.00 %)," ",0,0,0,0,24.70,24.7,24.70,24.70
12/08/2019,24.70,24.70,22.31,0.00 (0.00 %)," ",0,0,0,0,24.70,24.70,24.70,24.70
09/08/2019,24.70,24.70,22.31,0.00 (0.00 %)," ",0,0,0,0,24.70,24.7,24.70,24.70
08/08/2019,24.70,24.70,22.31,0.00 (0.00 %)," ",0,0,0,0,24.70,24.70,24.70,24.70
07/08/2019,24.70,24.70,22.31,0.00 (0.00 %)," ",0,0,0,0,24.70,24.7,24.70,24.70
06/08/2019,24.70,24.70,22.31,0.00 (0.00 %)," ",0,0,0,0,24.70,24.70,24.70,24.70
05/08/2019,24.70,24.70,22.31,0.00 (0.00 %)," ",0,0,0,0,24.70,24.7,24.70,24.70
02/08/2019,24.70,24.70,22.31,0.00 (0.00 %)," ",0,0,0,0,24.70,24.70,24.70,24.70
01/08/2019,24.70,24.70,22.31,0.00 (0.00 %)," ",0,0,0,0,24.70,24.7,24.70,24.70
31/07/2019,24.70,24.70,22.31,0.00 (0.00 %)," ",0,0,0,0,24.70,24.70,24.70,24.70
30/07/2019,24.70,24.70,22.31,0.00 (0.00 %)," ",0,0,0,0,24.70,24.7,24.70,24.70
29/07/2019,24.70,24.70,22.31,0.00 (0.00 %)," ",0,0,0,0,24.70,24.70,24.70,24.70
26/07/2019,24.70,24.70,22.31,0.00 (0.00 %)," ",0,0,0,0,24.70,24.7,24.70,24.70
25/07/2019,24.70,24.70,22.31,0.00 (0.00 %)," ",0,0,0,0,24.70,24.70,24.70,24.70
24/07/2019,24.70,24.70,22.31,0.00 (0.00 %)," ",0,0,0,0,24.70,24.7,24.70,24.70
23/07/2019,24.70,24.70,22.31,0.00 (0.00 %)," ",0,0,0,0,24.70,24.70,24.70,24.70
22/07/2019,24.70,24.70,22.31,0.00 (0.00 %)," ",0,0,0,0,24.70,24.7,24.70,24.70
19/07/2019,24.70,24.70,22.31,0.00 (0.00 %)," ",0,0,0,0,24.70,24.70,24.70,24.70
18/07/2019,24.70,24.70,22.31,0.00 (0.00 %)," ",0,0,0,0,24.70,24.7,24.70,24.70
17/07/2019,24.70,24.70,22.31,0.00 (0.00 %)," ",0,0,0,0,24.70,24.70,24.70,24.70
16/07/2019,24.70,24.70,22.31,0.00 (0.00 %)," ",0,0,0,0,24.70,24.7,24.70,24.70
15/07/2019,24.70,24.70,22.31,0.00 (0.00 %)," ",0,0,0,0,24.70,24.70,24.70,24.70
12/07/2019,26.20,26.20,22.31,0.00 (0.00 %)," ",0,0,0,0,26.20,26.2,26.20,26.20
11/07/2019,26.20,26.20,22.31,0.00 (0.00 %)," ",0,0,0,0,26.20,26.20,26.20,26.20
10/07/2019,26.20,26.20,22.31,0.00 (0.00 %)," ",0,0,0,0,26.20,26.2,26.20,26.20
09/07/2019,26.20,26.20,22.31,0.00 (0.00 %)," ",0,0,0,0,26.20,26.20,26.20,26.20
08/07/2019,26.20,26.20,22.31,0.00 (0.00 %)," ",0,0,0,0,26.20,26.2,26.20,26.20
05/07/2019,26.20,26.20,22.31,0.00 (0.00 %)," ",0,0,0,0,26.20,26.20,26.20,26.20
04/07/2019,26.20,26.20,22.31,0.00 (0.00 %)," ",0,0,0,0,26.20,26.2,26.20,26.20
03/07/2019,26.20,26.20,22.31,0.00 (0.00 %)," ",0,0,0,0,26.20,26.20,26.20,26.20
02/07/2019,26.20,26.20,22.31,0.00 (0.00 %)," ",0,0,0,0,26.20,26.2,26.20,26.20
01/07/2019,26.20,26.20,22.31,0.00 (0.00 %)," ",0,0,0,0,26.20,26.20,26.20,26.20
28/06/2019,26.20,26.20,22.31,0.00 (0.00 %)," ",0,0,0,0,26.20,26.2,26.20,26.20
27/06/2019,26.20,26.20,22.31,0.00 (0.00 %)," ",0,0,0,0,26.20,26.20,26.20,26.20
26/06/2019,26.20,26.20,22.31,0.00 (0.00 %)," ",0,0,0,0,26.20,26.2,26.20,26.20
25/06/2019,26.20,26.20,22.31,0.00 (0.00 %)," ",0,0,0,0,26.20,26.20,26.20,26.20
24/06/2019,26.20,26.20,22.31,0.00 (0.00 %)," ",0,0,0,0,26.20,26.2,26.20,26.20
21/06/2019,26.20,26.20,22.31,0.00 (0.00 %)," ",0,0,0,0,26.20,26.20,26.20,26.20
20/06/2019,26.20,26.20,22.31,0.00 (0.00 %)," ",0,0,0,0,26.20,26.2,26.20,26.20
19/06/2019,26.20,26.20,22.31,0.00 (0.00 %)," ",0,0,0,0,26.20,26.20,26.20,26.20
18/06/2019,26.20,26.20,22.31,0.00 (0.00 %)," ",0,0,0,0,26.20,26.2,26.20,26.20
17/06/2019,26.20,26.20,22.31,0.00 (0.00 %)," ",0,0,0,0,26.20,26.20,26.20,26.20
14/06/2019,26.20,26.20,22.31,0.00 (0.00 %)," ",0,0,0,0,26.20,26.2,26.20,26.20
13/06/2019,26.20,26.20,22.31,0.00 (0.00 %)," ",0,0,0,0,26.20,26.20,26.20,26.20
12/06/2019,26.20,26.20,22.31,0.00 (0.00 %)," ",0,0,0,0,26.20,26.2,26.20,26.20
11/06/2019,26.20,26.20,22.31,0.00 (0.00 %)," ",0,0,0,0,26.20,26.20,26.20,26.20
10/06/2019,26.20,26.20,22.31,0.00 (0.00 %)," ",0,0,0,0,26.20,26.2,26.20,26.20
07/06/2019,26.20,26.20,22.31,0.00 (0.00 %)," ",0,0,0,0,26.20,26.20,26.20,26.20
06/06/2019,26.20,26.20,22.31,0.00 (0.00 %)," ",0,0,0,0,26.20,26.2,26.20,26.20
05/06/2019,26.20,26.20,22.31,0.00 (0.00 %)," ",0,0,0,0,26.20,26.20,26.20,26.20
04/06/2019,26.20,26.20,22.31,0.00 (0.00 %)," ",0,0,0,0,26.20,26.2,26.20,26.20
03/06/2019,26.20,26.20,22.31,0.00 (0.00 %)," ",0,0,0,0,26.20,26.20,26.20,26.20
31/05/2019,26.20,26.20,22.31,0.00 (0.00 %)," ",0,0,0,0,26.20,26.2,26.20,26.20
30/05/2019,26.20,26.20,22.31,0.00 (0.00 %)," ",0,0,0,0,26.20,26.20,26.20,26.20
29/05/2019,26.20,26.20,22.31,0.00 (0.00 %)," ",0,0,0,0,26.20,26.2,26.20,26.20
28/05/2019,26.20,26.20,22.31,0.00 (0.00 %)," ",0,0,0,0,26.20,26.20,26.20,26.20
27/05/2019,26.20,26.20,22.31,0.00 (0.00 %)," ",0,0,0,0,26.20,26.2,26.20,26.20
24/05/2019,26.20,26.20,22.31,0.00 (0.00 %)," ",0,0,0,0,26.20,26.20,26.20,26.20
23/05/2019,26.20,26.20,22.31,0.00 (0.00 %)," ",0,0,0,0,26.20,26.2,26.20,26.20
22/05/2019,26.20,26.20,22.31,0.00 (0.00 %)," ",0,0,0,0,26.20,26.20,26.20,26.20
21/05/2019,26.20,26.20,22.31,0.00 (0.00 %)," ",0,0,0,0,26.20,26.2,26.20,26.20
20/05/2019,26.20,26.20,22.31,0.00 (0.00 %)," ",0,0,0,0,26.20,26.20,26.20,26.20
17/05/2019,26.20,26.20,22.31,0.00 (0.00 %)," ",0,0,0,0,26.20,26.2,26.20,26.20
16/05/2019,26.20,26.20,22.31,0.00 (0.00 %)," ",0,0,0,0,26.20,26.20,26.20,26.20
15/05/2019,26.20,26.20,22.31,0.00 (0.00 %)," ",0,0,0,0,26.20,26.2,26.20,26.20
14/05/2019,26.20,26.20,22.31,0.00 (0.00 %)," ",0,0,0,0,26.20,26.20,26.20,26.20
13/05/2019,26.20,26.20,22.31,0.00 (0.00 %)," ",0,0,0,0,26.20,26.2,26.20,26.20
10/05/2019,26.20,26.20,22.31,0.00 (0.00 %)," ",0,0,0,0,26.20,26.20,26.20,26.20
09/05/2019,26.20,26.20,22.31,0.00 (0.00 %)," ",0,0,0,0,26.20,26.2,26.20,26.20
08/05/2019,26.20,26.20,22.31,0.00 (0.00 %)," ",0,0,0,0,26.20,26.20,26.20,26.20
07/05/2019,26.20,26.20,22.31,0.00 (0.00 %)," ",0,0,0,0,26.20,26.2,26.20,26.20
06/05/2019,26.20,26.20,22.31,0.00 (0.00 %)," ",0,0,0,0,26.20,26.20,26.20,26.20
03/05/2019,26.20,26.20,22.31,0.00 (0.00 %)," ",0,0,0,0,26.20,26.2,26.20,26.20
02/05/2019,26.20,26.20,22.31,0.00 (0.00 %)," ",0,0,0,0,26.20,26.20,26.20,26.20
26/04/2019,26.20,26.20,22.31,0.00 (0.00 %)," ",0,0,0,0,26.20,26.2,26.20,26.20
25/04/2019,26.20,26.20,22.31,0.00 (0.00 %)," ",0,0,0,0,26.20,26.20,26.20,26.20
24/04/2019,26.20,26.20,22.31,0.00 (0.00 %)," ",0,0,0,0,26.20,26.2,26.20,26.20
23/04/2019,26.20,26.20,22.31,0.00 (0.00 %)," ",0,0,0,0,26.20,26.20,26.20,26.20
22/04/2019,26.20,26.20,22.31,0.00 (0.00 %)," ",0,0,0,0,26.20,26.2,26.20,26.20
19/04/2019,26.20,26.20,22.31,0.00 (0.00 %)," ",0,0,0,0,26.20,26.20,26.20,26.20
18/04/2019,26.20,26.20,22.31,0.00 (0.00 %)," ",0,0,0,0,26.20,26.2,26.20,26.20
17/04/2019,26.20,26.20,22.31,0.00 (0.00 %)," ",0,0,0,0,26.20,26.20,26.20,26.20
16/04/2019,26.20,26.20,22.31,0.00 (0.00 %)," ",0,0,0,0,26.20,26.2,26.20,26.20
12/04/2019,26.20,26.20,22.31,0.00 (0.00 %)," ",0,0,0,0,26.20,26.20,26.20,26.20
11/04/2019,26.20,26.20,22.31,0.00 (0.00 %)," ",0,0,0,0,26.20,26.2,26.20,26.20
10/04/2019,26.20,26.20,22.31,0.00 (0.00 %)," ",0,0,0,0,26.20,26.20,26.20,26.20
09/04/2019,26.20,26.20,22.31,0.00 (0.00 %)," ",0,0,0,0,26.20,26.2,26.20,26.20
08/04/2019,26.20,26.20,22.31,0.00 (0.00 %)," ",0,0,0,0,26.20,26.20,26.20,26.20
05/04/2019,26.20,26.20,22.31,0.00 (0.00 %)," ",0,0,0,0,26.20,26.2,26.20,26.20
04/04/2019,26.20,26.20,22.31,0.00 (0.00 %)," ",0,0,0,0,26.20,26.20,26.20,26.20
03/04/2019,26.20,26.20,22.31,0.00 (0.00 %)," ",0,0,0,0,26.20,26.2,26.20,26.20
02/04/2019,26.20,26.20,22.31,0.00 (0.00 %)," ",0,0,0,0,26.20,26.20,26.20,26.20
01/04/2019,26.20,26.20,22.31,0.00 (0.00 %)," ",0,0,0,0,26.20,26.2,26.20,26.20
29/03/2019,26.20,26.20,22.31,0.00 (0.00 %)," ",0,0,0,0,26.20,26.20,26.20,26.20
28/03/2019,26.20,26.20,22.31,0.00 (0.00 %)," ",0,0,0,0,26.20,26.2,26.20,26.20
27/03/2019,26.20,26.20,22.31,0.00 (0.00 %)," ",0,0,0,0,26.20,26.20,26.20,26.20
26/03/2019,26.20,26.20,22.31,0.00 (0.00 %)," ",0,0,0,0,26.20,26.2,26.20,26.20
25/03/2019,26.20,26.20,22.31,0.00 (0.00 %)," ",0,0,0,0,26.20,26.20,26.20,26.20
22/03/2019,26.20,26.20,22.31,0.00 (0.00 %)," ",0,0,0,0,26.20,26.2,26.20,26.20
21/03/2019,26.20,26.20,22.31,0.00 (0.00 %)," ",0,0,0,0,26.20,26.20,26.20,26.20
20/03/2019,26.20,26.20,22.31,0.00 (0.00 %)," ",0,0,0,0,26.20,26.2,26.20,26.20
19/03/2019,26.20,26.20,22.31,0.00 (0.00 %)," ",0,0,0,0,26.20,26.20,26.20,26.20
18/03/2019,26.20,26.20,22.31,0.00 (0.00 %)," ",0,0,0,0,26.20,26.2,26.20,26.20
15/03/2019,26.20,26.20,22.31,0.00 (0.00 %)," ",0,0,0,0,26.20,26.20,26.20,26.20
14/03/2019,26.20,26.20,22.31,0.00 (0.00 %)," ",0,0,0,0,26.20,26.2,26.20,26.20
13/03/2019,26.20,26.20,22.31,0.00 (0.00 %)," ",0,0,0,0,26.20,26.20,26.20,26.20
12/03/2019,26.20,26.20,22.31,0.00 (0.00 %)," ",0,0,0,0,26.20,26.2,26.20,26.20
11/03/2019,26.20,26.20,22.31,0.00 (0.00 %)," ",0,0,0,0,26.20,26.20,26.20,26.20
08/03/2019,26.20,26.20,22.31,0.00 (0.00 %)," ",0,0,0,0,26.20,26.2,26.20,26.20
07/03/2019,26.20,26.20,22.31,0.00 (0.00 %)," ",0,0,0,0,26.20,26.20,26.20,26.20
06/03/2019,26.20,26.20,22.31,0.00 (0.00 %)," ",0,0,0,0,26.20,26.2,26.20,26.20
05/03/2019,26.20,26.20,22.31,0.00 (0.00 %)," ",0,0,0,0,26.20,26.20,26.20,26.20
04/03/2019,26.20,26.20,22.31,0.00 (0.00 %)," ",0,0,0,0,26.20,26.2,26.20,26.20
01/03/2019,26.20,26.20,22.31,0.00 (0.00 %)," ",0,0,0,0,26.20,26.20,26.20,26.20
28/02/2019,26.20,26.20,22.31,0.00 (0.00 %)," ",0,0,0,0,26.20,26.2,26.20,26.20
27/02/2019,26.20,26.20,22.31,0.00 (0.00 %)," ",0,0,0,0,26.20,26.20,26.20,26.20
26/02/2019,26.20,26.20,22.31,0.00 (0.00 %)," ",0,0,0,0,26.20,26.2,26.20,26.20
25/02/2019,26.20,26.20,22.31,0.00 (0.00 %)," ",0,0,0,0,26.20,26.20,26.20,26.20
22/02/2019,26.20,26.20,22.31,0.00 (0.00 %)," ",0,0,0,0,26.20,26.2,26.20,26.20
21/02/2019,26.20,26.20,22.31,0.00 (0.00 %)," ",0,0,0,0,26.20,26.20,26.20,26.20
20/02/2019,26.20,26.20,22.31,0.00 (0.00 %)," ",0,0,0,0,26.20,26.2,26.20,26.20
19/02/2019,26.20,26.20,22.31,0.00 (0.00 %)," ",0,0,0,0,26.20,26.20,26.20,26.20
18/02/2019,26.20,26.20,22.31,0.00 (0.00 %)," ",0,0,0,0,26.20,26.2,26.20,26.20
15/02/2019,26.20,26.20,22.31,0.00 (0.00 %)," ",0,0,0,0,26.20,26.20,26.20,26.20
14/02/2019,26.20,26.20,22.31,0.00 (0.00 %)," ",0,0,0,0,26.20,26.2,26.20,26.20
13/02/2019,26.20,26.20,22.31,0.00 (0.00 %)," ",0,0,0,0,26.20,26.20,26.20,26.20
12/02/2019,26.20,26.20,22.31,0.00 (0.00 %)," ",0,0,0,0,26.20,26.2,26.20,26.20
11/02/2019,26.20,26.20,22.31,0.00 (0.00 %)," ",0,0,0,0,26.20,26.20,26.20,26.20
01/02/2019,26.20,26.20,22.31,0.00 (0.00 %)," ",0,0,0,0,26.20,26.2,26.20,26.20
31/01/2019,26.20,26.20,22.31,0.00 (0.00 %)," ",0,0,0,0,26.20,26.20,26.20,26.20
30/01/2019,26.20,26.20,22.31,0.00 (0.00 %)," ",0,0,0,0,26.20,26.2,26.20,26.20
29/01/2019,26.20,26.20,22.31,0.00 (0.00 %)," ",0,0,0,0,26.20,26.20,26.20,26.20
28/01/2019,26.20,26.20,22.31,0.00 (0.00 %)," ",0,0,0,0,26.20,26.2,26.20,26.20
25/01/2019,26.20,26.20,22.31,0.00 (0.00 %)," ",0,0,0,0,26.20,26.20,26.20,26.20
24/01/2019,26.20,26.20,22.31,0.00 (0.00 %)," ",0,0,0,0,26.20,26.2,26.20,26.20
23/01/2019,26.20,26.20,22.31,0.00 (0.00 %)," ",0,0,0,0,26.20,26.20,26.20,26.20
22/01/2019,26.20,26.20,22.31,0.00 (0.00 %)," ",0,0,0,0,26.20,26.2,26.20,26.20
21/01/2019,26.20,26.20,22.31,0.00 (0.00 %)," ",0,0,0,0,26.20,26.20,26.20,26.20
18/01/2019,26.20,26.20,22.31,0.00 (0.00 %)," ",0,0,0,0,26.20,26.2,26.20,26.20
17/01/2019,26.20,26.20,22.31,0.00 (0.00 %)," ",0,0,0,0,26.20,26.20,26.20,26.20
16/01/2019,22.31,26.20,22.31,0.00 (0.00 %)," ",0,0,0,0,26.20,26.2,26.20,26.20
15/01/2019,22.31,26.20,22.31,0.00 (0.00 %)," ",0,0,0,0,26.20,26.20,26.20,26.20
14/01/2019,22.31,26.20,22.31,0.00 (0.00 %)," ",0,0,0,0,26.20,26.2,26.20,26.20
11/01/2019,22.31,26.20,22.31,0.00 (0.00 %)," ",0,0,0,0,26.20,26.20,26.20,26.20
10/01/2019,22.31,26.20,22.31,0.00 (0.00 %)," ",0,0,0,0,26.20,26.2,26.20,26.20
09/01/2019,22.31,26.20,22.31,0.00 (0.00 %)," ",0,0,0,0,26.20,26.20,26.20,26.20
08/01/2019,22.31,26.20,22.31,0.00 (0.00 %)," ",0,0,0,0,26.20,26.2,26.20,26.20
07/01/2019,22.31,26.20,22.31,0.00 (0.00 %)," ",0,0,0,0,26.20,26.20,26.20,26.20
04/01/2019,22.31,26.20,22.31,0.00 (0.00 %)," ",0,0,0,0,26.20,26.2,26.20,26.20
03/01/2019,22.31,26.20,22.31,0.00 (0.00 %)," ",0,0,0,0,26.20,26.20,26.20,26.20
02/01/2019,22.31,26.20,22.31,0.00 (0.00 %)," ",0,0,0,0,26.20,26.2,26.20,26.20
28/12/2018,22.31,26.20,22.31,0.00 (0.00 %)," ",0,0,0,0,26.20,26.20,26.20,26.20
27/12/2018,22.31,26.20,22.31,0.00 (0.00 %)," ",0,0,0,0,26.20,26.2,26.20,26.20
26/12/2018,22.31,26.20,22.31,0.00 (0.00 %)," ",0,0,0,0,26.20,26.20,26.20,26.20
25/12/2018,22.31,26.20,22.31,0.00 (0.00 %)," ",0,0,0,0,26.20,26.2,26.20,26.20
24/12/2018,22.31,26.20,22.31,0.00 (0.00 %)," ",0,0,0,0,26.20,26.20,26.20,26.20
21/12/2018,22.31,26.20,22.31,0.00 (0.00 %)," ",0,0,0,0,26.20,26.2,26.20,26.20
20/12/2018,22.31,26.20,22.31,0.00 (0.00 %)," ",0,0,0,0,26.20,26.20,26.20,26.20
19/12/2018,22.31,26.20,22.31,0.00 (0.00 %)," ",0,0,0,0,26.20,26.2,26.20,26.20
18/12/2018,22.31,26.20,22.31,0.00 (0.00 %)," ",0,0,0,0,26.20,26.20,26.20,26.20
17/12/2018,22.31,26.20,22.31,0.00 (0.00 %)," ",0,0,0,0,26.20,26.2,26.20,26.20
14/12/2018,22.31,26.20,22.31,0.00 (0.00 %)," ",0,0,0,0,26.20,26.20,26.20,26.20
13/12/2018,22.31,26.20,22.31,0.00 (0.00 %)," ",0,0,0,0,26.20,26.2,26.20,26.20
12/12/2018,22.31,26.20,22.31,0.00 (0.00 %)," ",0,0,0,0,26.20,26.20,26.20,26.20
11/12/2018,22.31,26.20,22.31,0.00 (0.00 %)," ",0,0,0,0,26.20,26.2,26.20,26.20
10/12/2018,22.31,26.20,22.31,0.00 (0.00 %)," ",0,0,0,0,26.20,26.20,26.20,26.20
07/12/2018,22.31,26.20,22.31,0.00 (0.00 %)," ",0,0,0,0,26.20,26.2,26.20,26.20
06/12/2018,22.31,26.20,22.31,0.00 (0.00 %)," ",0,0,0,0,26.20,26.20,26.20,26.20
05/12/2018,22.31,26.20,22.31,0.00 (0.00 %)," ",0,0,0,0,26.20,26.2,26.20,26.20
04/12/2018,22.31,26.20,22.31,0.00 (0.00 %)," ",0,0,0,0,26.20,26.20,26.20,26.20
03/12/2018,22.31,26.20,22.31,0.00 (0.00 %)," ",0,0,0,0,26.20,26.2,26.20,26.20
30/11/2018,22.31,26.20,22.31,0.00 (0.00 %)," ",0,0,0,0,26.20,26.20,26.20,26.20
29/11/2018,22.31,26.20,22.31,0.00 (0.00 %)," ",0,0,0,0,26.20,26.2,26.20,26.20
28/11/2018,22.31,26.20,22.31,0.00 (0.00 %)," ",0,0,0,0,26.20,26.20,26.20,26.20
27/11/2018,22.31,26.20,22.31,0.00 (0.00 %)," ",0,0,0,0,26.20,26.2,26.20,26.20
26/11/2018,22.31,26.20,22.31,0.00 (0.00 %)," ",0,0,0,0,26.20,26.20,26.20,26.20
23/11/2018,22.31,26.20,22.31,3.40 (14.91 %)," ",100,"2,620,000",0,0,22.80,26.2,26.20,26.20
22/11/2018,19.41,22.80,19.41,0.00 (0.00 %)," ",0,0,0,0,22.80,22.80,22.80,22.80
21/11/2018,19.41,22.80,19.41,6.50 (39.88 %)," ",200,"4,560,000",0,0,16.30,22.8,22.80,22.80
20/11/2018,13.88,16.30,13.88,0.00 (0.00 %)," ",0,0,0,0,16.30,16.30,16.30,16.30
19/11/2018,13.88,16.30,13.88,0.00 (0.00 %)," ",0,0,0,0,16.30,16.3,16.30,16.30
16/11/2018,13.88,16.30,13.88,0.00 (0.00 %)," ",0,0,0,0,16.30,16.30,16.30,16.30
15/11/2018,13.88,16.30,13.88,0.00 (0.00 %)," ",0,0,0,0,16.30,16.3,16.30,16.30
14/11/2018,13.88,16.30,13.88,0.00 (0.00 %)," ",0,0,0,0,16.30,16.30,16.30,16.30
13/11/2018,13.88,16.30,13.88,0.00 (0.00 %)," ",0,0,0,0,16.30,16.3,16.30,16.30
12/11/2018,13.88,16.30,13.88,0.00 (0.00 %)," ",0,0,0,0,16.30,16.30,16.30,16.30
09/11/2018,13.88,16.30,13.88,0.00 (0.00 %)," ",0,0,0,0,16.30,16.3,16.30,16.30
08/11/2018,13.88,16.30,13.88,0.00 (0.00 %)," ",0,0,0,0,16.30,16.30,16.30,16.30
07/11/2018,13.88,16.30,13.88,0.00 (0.00 %)," ",0,0,0,0,16.30,16.3,16.30,16.30
06/11/2018,13.88,16.30,13.88,0.00 (0.00 %)," ",0,0,0,0,16.30,16.30,16.30,16.30
05/11/2018,13.88,16.30,13.88,0.00 (0.00 %)," ",0,0,0,0,16.30,16.3,16.30,16.30
02/11/2018,13.88,16.30,13.88,0.00 (0.00 %)," ",0,0,0,0,16.30,16.30,16.30,16.30
01/11/2018,13.88,16.30,13.88,0.00 (0.00 %)," ",0,0,0,0,16.30,16.3,16.30,16.30
31/10/2018,13.88,16.30,13.88,0.00 (0.00 %)," ",0,0,0,0,16.30,16.30,16.30,16.30
30/10/2018,13.88,16.30,13.88,0.00 (0.00 %)," ",0,0,0,0,16.30,16.3,16.30,16.30
29/10/2018,13.88,16.30,13.88,0.00 (0.00 %)," ",0,0,0,0,16.30,16.30,16.30,16.30
26/10/2018,13.88,16.30,13.88,0.00 (0.00 %)," ",0,0,0,0,16.30,16.3,16.30,16.30
25/10/2018,13.88,16.30,13.88,0.00 (0.00 %)," ",0,0,0,0,16.30,16.30,16.30,16.30
24/10/2018,13.88,16.30,13.88,0.00 (0.00 %)," ",0,0,0,0,16.30,16.3,16.30,16.30
23/10/2018,13.88,16.30,13.88,0.00 (0.00 %)," ",0,0,0,0,16.30,16.30,16.30,16.30
22/10/2018,13.88,16.30,13.88,0.00 (0.00 %)," ",0,0,0,0,16.30,16.3,16.30,16.30
19/10/2018,13.88,16.30,13.88,0.00 (0.00 %)," ",0,0,0,0,16.30,16.30,16.30,16.30
18/10/2018,13.88,16.30,13.88,0.00 (0.00 %)," ",0,0,0,0,16.30,16.3,16.30,16.30
17/10/2018,13.88,16.30,13.88,0.00 (0.00 %)," ",0,0,0,0,16.30,16.30,16.30,16.30
16/10/2018,13.88,16.30,13.88,0.00 (0.00 %)," ",0,0,0,0,16.30,16.3,16.30,16.30
15/10/2018,13.88,16.30,13.88,0.00 (0.00 %)," ",0,0,0,0,16.30,16.30,16.30,16.30
12/10/2018,13.88,16.30,13.88,0.00 (0.00 %)," ",0,0,0,0,16.30,16.3,16.30,16.30
11/10/2018,13.88,16.30,13.88,0.00 (0.00 %)," ",0,0,0,0,16.30,16.30,16.30,16.30
10/10/2018,13.88,16.30,13.88,0.00 (0.00 %)," ",0,0,0,0,16.30,16.3,16.30,16.30
09/10/2018,13.88,16.30,13.88,0.00 (0.00 %)," ",0,0,0,0,16.30,16.30,16.30,16.30
08/10/2018,13.88,16.30,13.88,0.00 (0.00 %)," ",0,0,0,0,16.30,16.3,16.30,16.30
05/10/2018,13.88,16.30,13.88,0.00 (0.00 %)," ",0,0,0,0,16.30,16.30,16.30,16.30
04/10/2018,13.88,16.30,13.88,0.00 (0.00 %)," ",0,0,0,0,16.30,16.3,16.30,16.30
03/10/2018,13.88,16.30,13.88,0.00 (0.00 %)," ",0,0,0,0,16.30,16.30,16.30,16.30
02/10/2018,13.88,16.30,13.88,0.00 (0.00 %)," ",0,0,0,0,16.30,16.3,16.30,16.30
01/10/2018,13.88,16.30,13.88,0.00 (0.00 %)," ",0,0,0,0,16.30,16.30,16.30,16.30
28/09/2018,13.88,16.30,13.88,0.00 (0.00 %)," ",0,0,0,0,16.30,16.3,16.30,16.30
27/09/2018,13.88,16.30,13.88,0.00 (0.00 %)," ",0,0,0,0,16.30,16.30,16.30,16.30
26/09/2018,13.88,16.30,13.88,0.00 (0.00 %)," ",0,0,0,0,16.30,16.3,16.30,16.30
25/09/2018,13.88,16.30,13.88,0.00 (0.00 %)," ",0,0,0,0,16.30,16.30,16.30,16.30
24/09/2018,13.88,16.30,13.88,0.00 (0.00 %)," ",0,0,0,0,16.30,16.3,16.30,16.30
21/09/2018,13.88,16.30,13.88,0.00 (0.00 %)," ",0,0,0,0,16.30,16.30,16.30,16.30
20/09/2018,13.88,16.30,13.88,0.00 (0.00 %)," ",0,0,0,0,16.30,16.3,16.30,16.30
19/09/2018,13.88,16.30,13.88,0.00 (0.00 %)," ",0,0,0,0,16.30,16.30,16.30,16.30
18/09/2018,13.88,16.30,13.88,0.00 (0.00 %)," ",0,0,0,0,16.30,16.3,16.30,16.30
17/09/2018,13.88,16.30,13.88,0.00 (0.00 %)," ",0,0,0,0,16.30,16.30,16.30,16.30
14/09/2018,13.88,16.30,13.88,0.00 (0.00 %)," ",0,0,0,0,16.30,16.3,16.30,16.30
13/09/2018,13.88,16.30,13.88,0.00 (0.00 %)," ",0,0,0,0,16.30,16.30,16.30,16.30
12/09/2018,13.88,16.30,13.88,0.00 (0.00 %)," ",0,0,0,0,16.30,16.3,16.30,16.30
11/09/2018,13.88,16.30,13.88,0.00 (0.00 %)," ",0,0,0,0,16.30,16.30,16.30,16.30
10/09/2018,13.88,16.30,13.88,0.00 (0.00 %)," ",0,0,0,0,16.30,16.3,16.30,16.30
07/09/2018,13.88,16.30,13.88,0.00 (0.00 %)," ",0,0,0,0,16.30,16.30,16.30,16.30
06/09/2018,13.88,16.30,13.88,0.00 (0.00 %)," ",0,0,0,0,16.30,16.3,16.30,16.30
05/09/2018,13.88,16.30,13.88,0.00 (0.00 %)," ",0,0,0,0,16.30,16.30,16.30,16.30
04/09/2018,13.88,16.30,13.88,0.00 (0.00 %)," ",0,0,0,0,16.30,16.3,16.30,16.30
31/08/2018,13.88,16.30,13.88,0.00 (0.00 %)," ",0,0,0,0,16.30,16.30,16.30,16.30
30/08/2018,13.88,16.30,13.88,0.00 (0.00 %)," ",0,0,0,0,16.30,16.3,16.30,16.30
29/08/2018,13.88,16.30,13.88,0.00 (0.00 %)," ",0,0,0,0,16.30,16.30,16.30,16.30
28/08/2018,13.88,16.30,13.88,0.00 (0.00 %)," ",0,0,0,0,16.30,16.3,16.30,16.30
27/08/2018,13.88,16.30,13.88,0.00 (0.00 %)," ",0,0,0,0,16.30,16.30,16.30,16.30
24/08/2018,13.88,16.30,13.88,0.00 (0.00 %)," ",0,0,0,0,16.30,16.3,16.30,16.30
23/08/2018,13.88,16.30,13.88,0.00 (0.00 %)," ",0,0,0,0,16.30,16.30,16.30,16.30
22/08/2018,13.88,16.30,13.88,0.00 (0.00 %)," ",0,0,0,0,16.30,16.3,16.30,16.30
21/08/2018,13.88,16.30,13.88,0.00 (0.00 %)," ",0,0,0,0,16.30,16.30,16.30,16.30
20/08/2018,13.88,16.30,13.88,0.00 (0.00 %)," ",0,0,0,0,16.30,16.3,16.30,16.30
17/08/2018,13.88,16.30,13.88,0.00 (0.00 %)," ",0,0,0,0,16.30,16.30,16.30,16.30
16/08/2018,13.88,16.30,13.88,0.00 (0.00 %)," ",0,0,0,0,16.30,16.3,16.30,16.30
15/08/2018,13.88,16.30,13.88,0.00 (0.00 %)," ",0,0,0,0,16.30,16.30,16.30,16.30
14/08/2018,13.88,16.30,13.88,0.00 (0.00 %)," ",0,0,0,0,16.30,16.3,16.30,16.30
13/08/2018,13.88,16.30,13.88,0.00 (0.00 %)," ",0,0,0,0,16.30,16.30,16.30,16.30
10/08/2018,13.88,16.30,13.88,0.00 (0.00 %)," ",0,0,0,0,16.30,16.3,16.30,16.30
09/08/2018,13.88,16.30,13.88,0.00 (0.00 %)," ",0,0,0,0,16.30,16.30,16.30,16.30
08/08/2018,13.88,16.30,13.88,0.00 (0.00 %)," ",0,0,0,0,16.30,16.3,16.30,16.30
07/08/2018,13.88,16.30,13.88,0.00 (0.00 %)," ",0,0,0,0,16.30,16.30,16.30,16.30
06/08/2018,13.88,16.30,13.88,0.00 (0.00 %)," ",0,0,0,0,16.30,16.3,16.30,16.30
03/08/2018,13.88,16.30,13.88,0.00 (0.00 %)," ",0,0,0,0,16.30,16.30,16.30,16.30
02/08/2018,13.88,16.30,13.88,0.00 (0.00 %)," ",0,0,0,0,16.30,16.3,16.30,16.30
01/08/2018,13.88,16.30,13.88,0.00 (0.00 %)," ",0,0,0,0,16.30,16.30,16.30,16.30
31/07/2018,13.88,16.30,13.88,0.00 (0.00 %)," ",0,0,0,0,16.30,16.3,16.30,16.30
30/07/2018,13.88,16.30,13.88,0.00 (0.00 %)," ",0,0,0,0,16.30,16.30,16.30,16.30
27/07/2018,13.88,16.30,13.88,0.00 (0.00 %)," ",0,0,0,0,16.30,16.3,16.30,16.30
26/07/2018,13.88,16.30,13.88,0.00 (0.00 %)," ",0,0,0,0,16.30,16.30,16.30,16.30
25/07/2018,13.88,16.30,13.88,0.00 (0.00 %)," ",0,0,0,0,16.30,16.3,16.30,16.30
24/07/2018,13.88,16.30,13.88,0.00 (0.00 %)," ",0,0,0,0,16.30,16.30,16.30,16.30
23/07/2018,13.88,16.30,13.88,0.00 (0.00 %)," ",0,0,0,0,16.30,16.3,16.30,16.30
20/07/2018,13.88,17.80,13.88,0.00 (0.00 %)," ",0,0,0,0,17.80,17.80,17.80,17.80
19/07/2018,13.88,17.80,13.88,0.00 (0.00 %)," ",0,0,0,0,17.80,17.8,17.80,17.80
18/07/2018,13.88,17.80,13.88,0.00 (0.00 %)," ",0,0,0,0,17.80,17.80,17.80,17.80
17/07/2018,13.88,17.80,13.88,0.00 (0.00 %)," ",0,0,0,0,17.80,17.8,17.80,17.80
16/07/2018,13.88,17.80,13.88,0.00 (0.00 %)," ",0,0,0,0,17.80,17.80,17.80,17.80
13/07/2018,13.88,17.80,13.88,0.00 (0.00 %)," ",0,0,0,0,17.80,17.8,17.80,17.80
12/07/2018,13.88,17.80,13.88,0.00 (0.00 %)," ",0,0,0,0,17.80,17.80,17.80,17.80
11/07/2018,13.88,17.80,13.88,0.00 (0.00 %)," ",0,0,0,0,17.80,17.8,17.80,17.80
10/07/2018,13.88,17.80,13.88,0.00 (0.00 %)," ",0,0,0,0,17.80,17.80,17.80,17.80
09/07/2018,13.88,17.80,13.88,0.00 (0.00 %)," ",0,0,0,0,17.80,17.8,17.80,17.80
06/07/2018,13.88,17.80,13.88,0.00 (0.00 %)," ",0,0,0,0,17.80,17.80,17.80,17.80
05/07/2018,13.88,17.80,13.88,0.00 (0.00 %)," ",0,0,0,0,17.80,17.8,17.80,17.80
04/07/2018,13.88,17.80,13.88,0.00 (0.00 %)," ",0,0,0,0,17.80,17.80,17.80,17.80
03/07/2018,13.88,17.80,13.88,0.00 (0.00 %)," ",0,0,0,0,17.80,17.8,17.80,17.80
02/07/2018,13.88,17.80,13.88,0.00 (0.00 %)," ",0,0,0,0,17.80,17.80,17.80,17.80
29/06/2018,13.88,17.80,13.88,0.00 (0.00 %)," ",0,0,0,0,17.80,17.8,17.80,17.80
28/06/2018,13.88,17.80,13.88,0.00 (0.00 %)," ",0,0,0,0,17.80,17.80,17.80,17.80
27/06/2018,13.88,17.80,13.88,0.00 (0.00 %)," ",0,0,0,0,17.80,17.8,17.80,17.80
26/06/2018,13.88,17.80,13.88,0.00 (0.00 %)," ",0,0,0,0,17.80,17.80,17.80,17.80
25/06/2018,13.88,17.80,13.88,0.00 (0.00 %)," ",0,0,0,0,17.80,17.8,17.80,17.80
22/06/2018,13.88,17.80,13.88,0.00 (0.00 %)," ",0,0,0,0,17.80,17.80,17.80,17.80
21/06/2018,13.88,17.80,13.88,0.00 (0.00 %)," ",0,0,0,0,17.80,17.8,17.80,17.80
20/06/2018,13.88,17.80,13.88,0.00 (0.00 %)," ",0,0,0,0,17.80,17.80,17.80,17.80
19/06/2018,13.88,17.80,13.88,0.00 (0.00 %)," ",0,0,0,0,17.80,17.8,17.80,17.80
18/06/2018,13.88,17.80,13.88,0.00 (0.00 %)," ",0,0,0,0,17.80,17.80,17.80,17.80
15/06/2018,13.88,17.80,13.88,0.00 (0.00 %)," ",0,0,0,0,17.80,17.8,17.80,17.80
14/06/2018,13.88,17.80,13.88,0.00 (0.00 %)," ",0,0,0,0,17.80,17.80,17.80,17.80
13/06/2018,13.88,17.80,13.88,0.00 (0.00 %)," ",0,0,0,0,17.80,17.8,17.80,17.80
12/06/2018,13.88,17.80,13.88,0.00 (0.00 %)," ",0,0,0,0,17.80,17.80,17.80,17.80
11/06/2018,13.88,17.80,13.88,0.00 (0.00 %)," ",0,0,0,0,17.80,17.8,17.80,17.80
08/06/2018,13.88,17.80,13.88,0.00 (0.00 %)," ",0,0,0,0,17.80,17.80,17.80,17.80
07/06/2018,13.88,17.80,13.88,0.00 (0.00 %)," ",0,0,0,0,17.80,17.8,17.80,17.80
06/06/2018,13.88,17.80,13.88,0.00 (0.00 %)," ",0,0,0,0,17.80,17.80,17.80,17.80
05/06/2018,13.88,17.80,13.88,0.00 (0.00 %)," ",0,0,0,0,17.80,17.8,17.80,17.80
04/06/2018,13.88,17.80,13.88,0.00 (0.00 %)," ",0,0,0,0,17.80,17.80,17.80,17.80
01/06/2018,13.88,17.80,13.88,0.00 (0.00 %)," ",0,0,0,0,17.80,17.8,17.80,17.80
31/05/2018,13.88,17.80,13.88,0.00 (0.00 %)," ",0,0,0,0,17.80,17.80,17.80,17.80
30/05/2018,13.88,17.80,13.88,0.00 (0.00 %)," ",0,0,0,0,17.80,17.8,17.80,17.80
29/05/2018,13.88,17.80,13.88,0.00 (0.00 %)," ",0,0,0,0,17.80,17.80,17.80,17.80
28/05/2018,13.88,17.80,13.88,0.00 (0.00 %)," ",0,0,0,0,17.80,17.8,17.80,17.80
25/05/2018,13.88,17.80,13.88,0.00 (0.00 %)," ",0,0,0,0,17.80,17.80,17.80,17.80
24/05/2018,13.88,17.80,13.88,0.00 (0.00 %)," ",0,0,0,0,17.80,17.8,17.80,17.80
23/05/2018,13.88,17.80,13.88,0.00 (0.00 %)," ",0,0,0,0,17.80,17.80,17.80,17.80
22/05/2018,13.88,17.80,13.88,0.00 (0.00 %)," ",0,0,0,0,17.80,17.8,17.80,17.80
21/05/2018,13.88,17.80,13.88,0.00 (0.00 %)," ",0,0,0,0,17.80,17.80,17.80,17.80
18/05/2018,13.88,17.80,13.88,0.00 (0.00 %)," ",0,0,0,0,17.80,17.8,17.80,17.80
17/05/2018,13.88,17.80,13.88,0.00 (0.00 %)," ",0,0,0,0,17.80,17.80,17.80,17.80
16/05/2018,13.88,17.80,13.88,0.00 (0.00 %)," ",0,0,0,0,17.80,17.8,17.80,17.80
15/05/2018,13.88,17.80,13.88,0.00 (0.00 %)," ",0,0,0,0,17.80,17.80,17.80,17.80
14/05/2018,13.88,17.80,13.88,0.00 (0.00 %)," ",0,0,0,0,17.80,17.8,17.80,17.80
11/05/2018,13.88,17.80,13.88,0.00 (0.00 %)," ",0,0,0,0,17.80,17.80,17.80,17.80
10/05/2018,13.88,17.80,13.88,0.00 (0.00 %)," ",0,0,0,0,17.80,17.8,17.80,17.80
09/05/2018,13.88,17.80,13.88,0.00 (0.00 %)," ",0,0,0,0,17.80,17.80,17.80,17.80
08/05/2018,13.88,17.80,13.88,0.00 (0.00 %)," ",0,0,0,0,17.80,17.8,17.80,17.80
07/05/2018,13.88,17.80,13.88,0.00 (0.00 %)," ",0,0,0,0,17.80,17.80,17.80,17.80
04/05/2018,13.88,17.80,13.88,0.00 (0.00 %)," ",0,0,0,0,17.80,17.8,17.80,17.80
03/05/2018,13.88,17.80,13.88,0.00 (0.00 %)," ",0,0,0,0,17.80,17.80,17.80,17.80
02/05/2018,13.88,17.80,13.88,0.00 (0.00 %)," ",0,0,0,0,17.80,17.8,17.80,17.80
27/04/2018,13.88,17.80,13.88,0.00 (0.00 %)," ",0,0,0,0,17.80,17.80,17.80,17.80
26/04/2018,13.88,17.80,13.88,0.00 (0.00 %)," ",0,0,0,0,17.80,17.8,17.80,17.80
24/04/2018,13.88,17.80,13.88,0.00 (0.00 %)," ",0,0,0,0,17.80,17.80,17.80,17.80
23/04/2018,13.88,17.80,13.88,0.00 (0.00 %)," ",0,0,0,0,17.80,17.8,17.80,17.80
20/04/2018,13.88,17.80,13.88,0.00 (0.00 %)," ",0,0,0,0,17.80,17.80,17.80,17.80
19/04/2018,13.88,17.80,13.88,0.00 (0.00 %)," ",0,0,0,0,17.80,17.8,17.80,17.80
18/04/2018,13.88,17.80,13.88,0.00 (0.00 %)," ",0,0,0,0,17.80,17.80,17.80,17.80
17/04/2018,13.88,17.80,13.88,0.00 (0.00 %)," ",0,0,0,0,17.80,17.8,17.80,17.80
16/04/2018,13.88,17.80,13.88,0.00 (0.00 %)," ",0,0,0,0,17.80,17.80,17.80,17.80
13/04/2018,13.88,17.80,13.88,0.00 (0.00 %)," ",0,0,0,0,17.80,17.8,17.80,17.80
12/04/2018,13.88,17.80,13.88,0.00 (0.00 %)," ",0,0,0,0,17.80,17.80,17.80,17.80
11/04/2018,13.88,17.80,13.88,0.00 (0.00 %)," ",0,0,0,0,17.80,17.8,17.80,17.80
10/04/2018,13.88,17.80,13.88,0.00 (0.00 %)," ",0,0,0,0,17.80,17.80,17.80,17.80
09/04/2018,13.88,17.80,13.88,0.00 (0.00 %)," ",0,0,0,0,17.80,17.8,17.80,17.80
06/04/2018,13.88,17.80,13.88,0.00 (0.00 %)," ",0,0,0,0,17.80,17.80,17.80,17.80
05/04/2018,13.88,17.80,13.88,0.00 (0.00 %)," ",0,0,0,0,17.80,17.8,17.80,17.80
04/04/2018,13.88,17.80,13.88,0.00 (0.00 %)," ",0,0,0,0,17.80,17.80,17.80,17.80
03/04/2018,13.88,17.80,13.88,0.00 (0.00 %)," ",0,0,0,0,17.80,17.8,17.80,17.80
02/04/2018,13.88,17.80,13.88,0.00 (0.00 %)," ",0,0,"2,628","53,611,200",17.80,17.80,17.80,17.80
30/03/2018,13.88,17.80,13.88,0.00 (0.00 %)," ",0,0,0,0,17.80,17.8,17.80,17.80
29/03/2018,13.88,17.80,13.88,0.00 (0.00 %)," ",0,0,0,0,17.80,17.80,17.80,17.80
28/03/2018,13.88,17.80,13.88,0.00 (0.00 %)," ",0,0,0,0,17.80,17.8,17.80,17.80
27/03/2018,13.88,17.80,13.88,0.00 (0.00 %)," ",0,0,0,0,17.80,17.80,17.80,17.80
26/03/2018,13.88,17.80,13.88,0.00 (0.00 %)," ",0,0,0,0,17.80,17.8,17.80,17.80
23/03/2018,13.88,17.80,13.88,0.00 (0.00 %)," ",0,0,0,0,17.80,17.80,17.80,17.80
22/03/2018,13.88,17.80,13.88,0.00 (0.00 %)," ",0,0,0,0,17.80,17.8,17.80,17.80
21/03/2018,13.88,17.80,13.88,0.00 (0.00 %)," ",0,0,0,0,17.80,17.80,17.80,17.80
20/03/2018,13.88,17.80,13.88,0.00 (0.00 %)," ",0,0,0,0,17.80,17.8,17.80,17.80
19/03/2018,13.88,17.80,13.88,0.00 (0.00 %)," ",0,0,"18,997","387,538,800",17.80,17.80,17.80,17.80
16/03/2018,13.88,17.80,13.88,0.00 (0.00 %)," ",0,0,0,0,17.80,17.8,17.80,17.80
15/03/2018,13.88,17.80,13.88,0.00 (0.00 %)," ",0,0,0,0,17.80,17.80,17.80,17.80
14/03/2018,13.88,17.80,13.88,0.00 (0.00 %)," ",0,0,"12,679","258,651,600",17.80,17.8,17.80,17.80
13/03/2018,13.88,17.80,13.88,0.00 (0.00 %)," ",0,0,0,0,17.80,17.80,17.80,17.80
12/03/2018,13.88,17.80,13.88,0.00 (0.00 %)," ",0,0,0,0,17.80,17.8,17.80,17.80
09/03/2018,13.88,17.80,13.88,0.00 (0.00 %)," ",0,0,0,0,17.80,17.80,17.80,17.80
08/03/2018,13.88,17.80,13.88,0.00 (0.00 %)," ",0,0,0,0,17.80,17.8,17.80,17.80
07/03/2018,13.88,17.80,13.88,0.00 (0.00 %)," ",0,0,0,0,17.80,17.80,17.80,17.80
06/03/2018,13.88,17.80,13.88,0.00 (0.00 %)," ",0,0,0,0,17.80,17.8,17.80,17.80
05/03/2018,13.88,17.80,13.88,1.40 (8.54 %)," ","1,000","17,800,000",0,0,16.40,17.80,17.80,17.80
02/03/2018,12.79,16.40,12.79,0.00 (0.00 %)," ",0,0,0,0,16.40,16.4,16.40,16.40
01/03/2018,12.79,16.40,12.79,0.00 (0.00 %)," ",0,0,0,0,16.40,16.40,16.40,16.40
28/02/2018,12.79,16.40,12.79,0.00 (0.00 %)," ",0,0,0,0,16.40,16.4,16.40,16.40
27/02/2018,12.79,16.40,12.79,0.00 (0.00 %)," ",0,0,0,0,16.40,16.40,16.40,16.40
26/02/2018,12.79,16.40,12.79,0.00 (0.00 %)," ",0,0,0,0,16.40,16.4,16.40,16.40
23/02/2018,12.79,16.40,12.79,0.00 (0.00 %)," ",0,0,0,0,16.40,16.40,16.40,16.40
22/02/2018,12.79,16.40,12.79,0.00 (0.00 %)," ",0,0,0,0,16.40,16.4,16.40,16.40
21/02/2018,12.79,16.40,12.79,0.00 (0.00 %)," ",0,0,0,0,16.40,16.40,16.40,16.40
13/02/2018,12.79,16.40,12.79,0.00 (0.00 %)," ",0,0,0,0,16.40,16.4,16.40,16.40
12/02/2018,12.79,16.40,12.79,0.00 (0.00 %)," ",0,0,0,0,16.40,16.40,16.40,16.40
09/02/2018,12.79,16.40,12.79,0.00 (0.00 %)," ",0,0,0,0,16.40,16.4,16.40,16.40
08/02/2018,12.79,16.40,12.79,0.00 (0.00 %)," ",0,0,0,0,16.40,16.40,16.40,16.40
07/02/2018,12.79,16.40,12.79,0.00 (0.00 %)," ",0,0,0,0,16.40,16.4,16.40,16.40
06/02/2018,12.79,16.40,12.79,0.00 (0.00 %)," ",0,0,0,0,16.40,16.40,16.40,16.40
05/02/2018,12.79,16.40,12.79,0.00 (0.00 %)," ",0,0,0,0,16.40,16.4,16.40,16.40
02/02/2018,12.79,16.40,12.79,0.00 (0.00 %)," ",0,0,0,0,16.40,16.40,16.40,16.40
01/02/2018,12.79,16.40,12.79,0.00 (0.00 %)," ",0,0,0,0,16.40,16.4,16.40,16.40
31/01/2018,12.79,16.40,12.79,0.00 (0.00 %)," ",0,0,0,0,16.40,16.40,16.40,16.40
30/01/2018,12.79,16.40,12.79,0.00 (0.00 %)," ",0,0,0,0,16.40,16.4,16.40,16.40
29/01/2018,12.79,16.40,12.79,0.00 (0.00 %)," ",0,0,0,0,16.40,16.40,16.40,16.40
26/01/2018,12.79,16.40,12.79,0.00 (0.00 %)," ",0,0,0,0,16.40,16.4,16.40,16.40
25/01/2018,12.79,16.40,12.79,0.00 (0.00 %)," ",0,0,0,0,16.40,16.40,16.40,16.40
24/01/2018,12.79,16.40,12.79,0.00 (0.00 %)," ",0,0,0,0,16.40,16.4,16.40,16.40
23/01/2018,12.79,16.40,12.79,0.00 (0.00 %)," ",0,0,0,0,16.40,16.40,16.40,16.40
22/01/2018,12.79,16.40,12.79,0.00 (0.00 %)," ",0,0,0,0,16.40,16.4,16.40,16.40
19/01/2018,12.79,16.40,12.79,0.00 (0.00 %)," ",0,0,0,0,16.40,16.40,16.40,16.40
18/01/2018,12.79,16.40,12.79,0.00 (0.00 %)," ",0,0,0,0,16.40,16.4,16.40,16.40
17/01/2018,12.79,16.40,12.79,0.00 (0.00 %)," ",0,0,0,0,16.40,16.40,16.40,16.40
16/01/2018,12.79,16.40,12.79,0.00 (0.00 %)," ",0,0,0,0,16.40,16.4,16.40,16.40
15/01/2018,12.79,16.40,12.79,0.00 (0.00 %)," ",0,0,0,0,16.40,16.40,16.40,16.40
12/01/2018,12.79,16.40,12.79,0.00 (0.00 %)," ",0,0,0,0,16.40,16.4,16.40,16.40
11/01/2018,12.79,16.40,12.79,0.00 (0.00 %)," ",0,0,0,0,16.40,16.40,16.40,16.40
10/01/2018,12.79,16.40,12.79,0.00 (0.00 %)," ",0,0,0,0,16.40,16.4,16.40,16.40
09/01/2018,12.79,16.40,12.79,0.00 (0.00 %)," ",0,0,0,0,16.40,16.40,16.40,16.40
08/01/2018,12.79,16.40,12.79,0.00 (0.00 %)," ",0,0,0,0,16.40,16.4,16.40,16.40
05/01/2018,12.79,16.40,12.79,0.00 (0.00 %)," ",0,0,0,0,16.40,16.40,16.40,16.40
04/01/2018,12.79,16.40,12.79,0.00 (0.00 %)," ",0,0,0,0,16.40,16.4,16.40,16.40
03/01/2018,12.79,16.40,12.79,0.00 (0.00 %)," ",0,0,0,0,16.40,16.40,16.40,16.40
02/01/2018,12.79,16.40,12.79,0.00 (0.00 %)," ",0,0,0,0,16.40,16.4,16.40,16.40
29/12/2017,12.79,16.40,12.79,0.00 (0.00 %)," ",0,0,0,0,16.40,16.40,16.40,16.40
28/12/2017,12.79,16.40,12.79,0.00 (0.00 %)," ",0,0,0,0,16.40,16.4,16.40,16.40
27/12/2017,12.79,16.40,12.79,0.00 (0.00 %)," ",0,0,0,0,16.40,16.40,16.40,16.40
26/12/2017,12.79,16.40,12.79,0.00 (0.00 %)," ",0,0,0,0,16.40,16.4,16.40,16.40
25/12/2017,12.79,16.40,12.79,0.00 (0.00 %)," ",0,0,0,0,16.40,16.40,16.40,16.40
22/12/2017,12.79,16.40,12.79,0.00 (0.00 %)," ",0,0,0,0,16.40,16.4,16.40,16.40
21/12/2017,12.79,16.40,12.79,0.00 (0.00 %)," ",0,0,0,0,16.40,16.40,16.40,16.40
20/12/2017,12.79,16.40,12.79,0.00 (0.00 %)," ",0,0,0,0,16.40,16.4,16.40,16.40
19/12/2017,12.79,16.40,12.79,0.00 (0.00 %)," ",0,0,0,0,16.40,16.40,16.40,16.40
18/12/2017,12.79,16.40,12.79,0.00 (0.00 %)," ",0,0,0,0,16.40,16.4,16.40,16.40
15/12/2017,12.79,16.40,12.79,0.00 (0.00 %)," ",0,0,0,0,16.40,16.40,16.40,16.40
14/12/2017,12.79,16.40,12.79,0.00 (0.00 %)," ",0,0,0,0,16.40,16.4,16.40,16.40
13/12/2017,12.79,16.40,12.79,0.00 (0.00 %)," ",0,0,0,0,16.40,16.40,16.40,16.40
12/12/2017,12.79,16.40,12.79,0.00 (0.00 %)," ",0,0,0,0,16.40,16.4,16.40,16.40
11/12/2017,12.79,16.40,12.79,0.00 (0.00 %)," ",0,0,0,0,16.40,16.40,16.40,16.40
08/12/2017,12.79,16.40,12.79,0.00 (0.00 %)," ",0,0,0,0,16.40,16.4,16.40,16.40
07/12/2017,12.79,16.40,12.79,0.00 (0.00 %)," ",0,0,0,0,16.40,16.40,16.40,16.40
06/12/2017,12.79,16.40,12.79,0.00 (0.00 %)," ",0,0,0,0,16.40,16.4,16.40,16.40
05/12/2017,12.79,16.40,12.79,0.00 (0.00 %)," ",0,0,0,0,16.40,16.40,16.40,16.40
04/12/2017,12.79,16.40,12.79,0.00 (0.00 %)," ",0,0,0,0,16.40,16.4,16.40,16.40
01/12/2017,12.79,16.40,12.79,0.00 (0.00 %)," ",0,0,0,0,16.40,16.40,16.40,16.40
30/11/2017,12.79,16.40,12.79,0.00 (0.00 %)," ",0,0,0,0,16.40,16.4,16.40,16.40
29/11/2017,12.79,16.40,12.79,0.00 (0.00 %)," ",0,0,0,0,16.40,16.40,16.40,16.40
28/11/2017,12.79,16.40,12.79,0.00 (0.00 %)," ",0,0,0,0,16.40,16.4,16.40,16.40
27/11/2017,12.79,16.40,12.79,0.00 (0.00 %)," ",0,0,0,0,16.40,16.40,16.40,16.40
24/11/2017,12.79,16.40,12.79,0.00 (0.00 %)," ",0,0,0,0,16.40,16.4,16.40,16.40
23/11/2017,12.79,16.40,12.79,0.00 (0.00 %)," ",0,0,0,0,16.40,16.40,16.40,16.40
22/11/2017,12.79,16.40,12.79,0.00 (0.00 %)," ",0,0,0,0,16.40,16.4,16.40,16.40
21/11/2017,12.79,16.40,12.79,0.00 (0.00 %)," ",0,0,0,0,16.40,16.40,16.40,16.40
20/11/2017,12.79,16.40,12.79,0.00 (0.00 %)," ",0,0,0,0,16.40,16.4,16.40,16.40
17/11/2017,12.79,16.40,12.79,0.00 (0.00 %)," ",0,0,0,0,16.40,16.40,16.40,16.40
16/11/2017,12.79,16.40,12.79,0.00 (0.00 %)," ",0,0,0,0,16.40,16.4,16.40,16.40
15/11/2017,12.79,16.40,12.79,0.00 (0.00 %)," ",0,0,0,0,16.40,16.40,16.40,16.40
14/11/2017,12.79,16.40,12.79,0.00 (0.00 %)," ",0,0,0,0,16.40,16.4,16.40,16.40
13/11/2017,12.79,16.40,12.79,0.00 (0.00 %)," ",0,0,0,0,16.40,16.40,16.40,16.40
10/11/2017,12.79,16.40,12.79,0.00 (0.00 %)," ",0,0,0,0,16.40,16.4,16.40,16.40
09/11/2017,12.79,16.40,12.79,0.00 (0.00 %)," ",0,0,0,0,16.40,16.40,16.40,16.40
08/11/2017,12.79,16.40,12.79,0.00 (0.00 %)," ",0,0,0,0,16.40,16.4,16.40,16.40
07/11/2017,12.79,16.40,12.79,0.00 (0.00 %)," ",0,0,0,0,16.40,16.40,16.40,16.40
06/11/2017,12.79,16.40,12.79,0.00 (0.00 %)," ",0,0,0,0,16.40,16.4,16.40,16.40
03/11/2017,12.79,16.40,12.79,0.00 (0.00 %)," ",0,0,0,0,16.40,16.40,16.40,16.40
02/11/2017,12.79,16.40,12.79,0.00 (0.00 %)," ",0,0,0,0,16.40,16.4,16.40,16.40
01/11/2017,12.79,16.40,12.79,0.00 (0.00 %)," ",0,0,0,0,16.40,16.40,16.40,16.40
31/10/2017,12.79,16.40,12.79,0.00 (0.00 %)," ",0,0,0,0,16.40,16.4,16.40,16.40
30/10/2017,12.79,16.40,12.79,0.00 (0.00 %)," ",0,0,0,0,16.40,16.40,16.40,16.40
27/10/2017,12.79,16.40,12.79,0.00 (0.00 %)," ",0,0,0,0,16.40,16.4,16.40,16.40
26/10/2017,12.79,16.40,12.79,0.00 (0.00 %)," ",0,0,0,0,16.40,16.40,16.40,16.40
25/10/2017,12.79,16.40,12.79,0.00 (0.00 %)," ",0,0,0,0,16.40,16.4,16.40,16.40
24/10/2017,12.79,16.40,12.79,0.00 (0.00 %)," ",0,0,0,0,16.40,16.40,16.40,16.40
23/10/2017,12.79,16.40,12.79,0.00 (0.00 %)," ",0,0,0,0,16.40,16.4,16.40,16.40
20/10/2017,12.79,16.40,12.79,0.00 (0.00 %)," ",0,0,0,0,16.40,16.40,16.40,16.40
19/10/2017,12.79,16.40,12.79,0.00 (0.00 %)," ",0,0,0,0,16.40,16.4,16.40,16.40
18/10/2017,12.79,16.40,12.79,0.00 (0.00 %)," ",0,0,0,0,16.40,16.40,16.40,16.40
17/10/2017,12.79,16.40,12.79,0.00 (0.00 %)," ",0,0,0,0,16.40,16.4,16.40,16.40
16/10/2017,12.79,16.40,12.79,0.00 (0.00 %)," ",0,0,0,0,16.40,16.40,16.40,16.40
13/10/2017,12.79,16.40,12.79,0.00 (0.00 %)," ",0,0,0,0,16.40,16.4,16.40,16.40
12/10/2017,12.79,16.40,12.79,0.00 (0.00 %)," ",0,0,0,0,16.40,16.40,16.40,16.40
11/10/2017,12.79,16.40,12.79,0.00 (0.00 %)," ",0,0,0,0,16.40,16.4,16.40,16.40
10/10/2017,12.79,16.40,12.79,0.00 (0.00 %)," ",0,0,0,0,16.40,16.40,16.40,16.40
09/10/2017,12.79,16.40,12.79,0.00 (0.00 %)," ",0,0,0,0,16.40,16.4,16.40,16.40
06/10/2017,12.79,16.40,12.79,0.00 (0.00 %)," ",0,0,0,0,16.40,16.40,16.40,16.40
05/10/2017,12.79,16.40,12.79,0.00 (0.00 %)," ",0,0,0,0,16.40,16.4,16.40,16.40
04/10/2017,12.79,16.40,12.79,0.00 (0.00 %)," ",0,0,0,0,16.40,16.40,16.40,16.40
03/10/2017,12.79,16.40,12.79,0.00 (0.00 %)," ",0,0,0,0,16.40,16.4,16.40,16.40
02/10/2017,12.79,16.40,12.79,0.00 (0.00 %)," ",0,0,0,0,16.40,16.40,16.40,16.40
29/09/2017,12.79,16.40,12.79,0.00 (0.00 %)," ",0,0,0,0,16.40,16.4,16.40,16.40
28/09/2017,12.79,16.40,12.79,0.00 (0.00 %)," ",0,0,0,0,16.40,16.40,16.40,16.40
27/09/2017,12.79,16.40,12.79,0.00 (0.00 %)," ",0,0,0,0,16.40,16.4,16.40,16.40
26/09/2017,12.79,16.40,12.79,0.00 (0.00 %)," ",0,0,0,0,16.40,16.40,16.40,16.40
25/09/2017,12.79,16.40,12.79,0.00 (0.00 %)," ",0,0,0,0,16.40,16.4,16.40,16.40
22/09/2017,12.79,16.40,12.79,0.00 (0.00 %)," ",0,0,0,0,16.40,16.40,16.40,16.40
21/09/2017,12.79,16.40,12.79,0.00 (0.00 %)," ",0,0,0,0,16.40,16.4,16.40,16.40
20/09/2017,12.79,16.40,12.79,0.00 (0.00 %)," ",0,0,0,0,16.40,16.40,16.40,16.40
19/09/2017,12.79,16.40,12.79,0.00 (0.00 %)," ",0,0,0,0,16.40,16.4,16.40,16.40
18/09/2017,12.79,16.40,12.79,0.00 (0.00 %)," ",0,0,0,0,16.40,16.40,16.40,16.40
15/09/2017,12.79,16.40,12.79,0.00 (0.00 %)," ",0,0,0,0,16.40,16.4,16.40,16.40
14/09/2017,12.79,16.40,12.79,0.00 (0.00 %)," ",0,0,0,0,16.40,16.40,16.40,16.40
13/09/2017,12.79,16.40,12.79,0.00 (0.00 %)," ",0,0,0,0,16.40,16.4,16.40,16.40
12/09/2017,12.79,16.40,12.79,0.00 (0.00 %)," ",0,0,0,0,16.40,16.40,16.40,16.40
08/09/2017,12.79,16.40,12.79,0.00 (0.00 %)," ",0,0,0,0,16.40,16.4,16.40,16.40
07/09/2017,12.79,16.40,12.79,0.00 (0.00 %)," ",0,0,0,0,16.40,16.40,16.40,16.40
06/09/2017,12.79,16.40,12.79,0.00 (0.00 %)," ",0,0,0,0,16.40,16.4,16.40,16.40
05/09/2017,12.79,16.40,12.79,0.00 (0.00 %)," ",0,0,0,0,16.40,16.40,16.40,16.40
01/09/2017,12.79,16.40,12.79,0.00 (0.00 %)," ",0,0,0,0,16.40,16.4,16.40,16.40
31/08/2017,12.79,16.40,12.79,0.00 (0.00 %)," ",0,0,0,0,16.40,16.40,16.40,16.40
30/08/2017,12.79,16.40,12.79,0.00 (0.00 %)," ",0,0,0,0,16.40,16.4,16.40,16.40
29/08/2017,12.79,16.40,12.79,0.00 (0.00 %)," ",0,0,0,0,16.40,16.40,16.40,16.40
28/08/2017,12.79,16.40,12.79,0.00 (0.00 %)," ",0,0,0,0,16.40,16.4,16.40,16.40
25/08/2017,12.79,16.40,12.79,0.00 (0.00 %)," ",0,0,0,0,16.40,16.40,16.40,16.40
24/08/2017,12.79,16.40,12.79,0.00 (0.00 %)," ",0,0,0,0,16.40,16.4,16.40,16.40
23/08/2017,12.79,16.40,12.79,0.00 (0.00 %)," ",0,0,0,0,16.40,16.40,16.40,16.40
22/08/2017,12.79,16.40,12.79,0.00 (0.00 %)," ",0,0,0,0,16.40,16.4,16.40,16.40
21/08/2017,12.79,16.40,12.79,0.00 (0.00 %)," ",0,0,0,0,16.40,16.40,16.40,16.40
18/08/2017,12.79,16.40,12.79,0.00 (0.00 %)," ",0,0,0,0,16.40,16.4,16.40,16.40
17/08/2017,12.79,16.40,12.79,0.00 (0.00 %)," ",0,0,0,0,16.40,16.40,16.40,16.40
16/08/2017,12.79,16.40,12.79,0.00 (0.00 %)," ",0,0,0,0,16.40,16.4,16.40,16.40
15/08/2017,12.79,16.40,12.79,0.00 (0.00 %)," ",0,0,0,0,16.40,16.40,16.40,16.40
14/08/2017,12.79,16.40,12.79,0.00 (0.00 %)," ",0,0,0,0,16.40,16.4,16.40,16.40
11/08/2017,12.79,16.40,12.79,0.00 (0.00 %)," ",0,0,0,0,16.40,16.40,16.40,16.40
10/08/2017,12.79,16.40,12.79,0.00 (0.00 %)," ",0,0,0,0,16.40,16.4,16.40,16.40
09/08/2017,12.79,16.40,12.79,0.00 (0.00 %)," ",0,0,0,0,16.40,16.40,16.40,16.40
08/08/2017,12.79,16.40,12.79,0.00 (0.00 %)," ",0,0,0,0,16.40,16.4,16.40,16.40
07/08/2017,12.79,16.40,12.79,0.00 (0.00 %)," ",0,0,0,0,16.40,16.40,16.40,16.40
04/08/2017,12.79,16.40,12.79,0.00 (0.00 %)," ",0,0,0,0,16.40,16.4,16.40,16.40
03/08/2017,12.79,16.40,12.79,0.00 (0.00 %)," ",0,0,0,0,16.40,16.40,16.40,16.40
02/08/2017,12.79,16.40,12.79,0.00 (0.00 %)," ",0,0,0,0,16.40,16.4,16.40,16.40
01/08/2017,12.79,16.40,12.79,0.00 (0.00 %)," ",0,0,0,0,16.40,16.40,16.40,16.40
31/07/2017,12.79,16.40,12.79,0.00 (0.00 %)," ",0,0,0,0,16.40,16.4,16.40,16.40
28/07/2017,12.79,16.40,12.79,0.00 (0.00 %)," ",0,0,0,0,16.40,16.40,16.40,16.40
27/07/2017,12.79,16.40,12.79,0.00 (0.00 %)," ",0,0,0,0,16.40,16.4,16.40,16.40
26/07/2017,12.79,16.40,12.79,0.00 (0.00 %)," ",0,0,0,0,16.40,16.40,16.40,16.40
25/07/2017,12.79,17.10,12.79,0.00 (0.00 %)," ",0,0,0,0,17.10,17.1,17.10,17.10
24/07/2017,12.79,17.10,12.79,0.00 (0.00 %)," ",0,0,0,0,17.10,17.10,17.10,17.10
21/07/2017,12.79,17.10,12.79,0.00 (0.00 %)," ",0,0,0,0,17.10,17.1,17.10,17.10
20/07/2017,12.79,17.10,12.79,0.00 (0.00 %)," ",0,0,0,0,17.10,17.10,17.10,17.10
19/07/2017,12.79,17.10,12.79,0.00 (0.00 %)," ",0,0,0,0,17.10,17.1,17.10,17.10
18/07/2017,12.79,17.10,12.79,0.00 (0.00 %)," ",0,0,0,0,17.10,17.10,17.10,17.10
17/07/2017,12.79,17.10,12.79,0.00 (0.00 %)," ",0,0,0,0,17.10,17.1,17.10,17.10
14/07/2017,12.79,17.10,12.79,0.00 (0.00 %)," ",0,0,0,0,17.10,17.10,17.10,17.10
13/07/2017,12.79,17.10,12.79,0.00 (0.00 %)," ",0,0,0,0,17.10,17.1,17.10,17.10
12/07/2017,12.79,17.10,12.79,0.00 (0.00 %)," ",0,0,0,0,17.10,17.10,17.10,17.10
11/07/2017,12.79,17.10,12.79,0.00 (0.00 %)," ",0,0,0,0,17.10,17.1,17.10,17.10
10/07/2017,12.79,17.10,12.79,0.00 (0.00 %)," ",0,0,0,0,17.10,17.10,17.10,17.10
07/07/2017,12.79,17.10,12.79,0.00 (0.00 %)," ",0,0,0,0,17.10,17.1,17.10,17.10
06/07/2017,12.79,17.10,12.79,0.00 (0.00 %)," ",0,0,0,0,17.10,17.10,17.10,17.10
05/07/2017,12.79,17.10,12.79,0.00 (0.00 %)," ",0,0,0,0,17.10,17.1,17.10,17.10
04/07/2017,12.79,17.10,12.79,0.00 (0.00 %)," ",0,0,0,0,17.10,17.10,17.10,17.10
03/07/2017,12.79,17.10,12.79,0.00 (0.00 %)," ",0,0,0,0,17.10,17.1,17.10,17.10
30/06/2017,12.79,17.10,12.79,0.00 (0.00 %)," ",0,0,0,0,17.10,17.10,17.10,17.10
29/06/2017,12.79,17.10,12.79,0.00 (0.00 %)," ",0,0,0,0,17.10,17.1,17.10,17.10
28/06/2017,12.79,17.10,12.79,0.00 (0.00 %)," ",0,0,0,0,17.10,17.10,17.10,17.10
27/06/2017,12.79,17.10,12.79,0.00 (0.00 %)," ",0,0,0,0,17.10,17.1,17.10,17.10
26/06/2017,12.79,17.10,12.79,0.00 (0.00 %)," ",0,0,0,0,17.10,17.10,17.10,17.10
23/06/2017,12.79,17.10,12.79,0.00 (0.00 %)," ",0,0,0,0,17.10,17.1,17.10,17.10
22/06/2017,12.79,17.10,12.79,0.00 (0.00 %)," ",0,0,0,0,17.10,17.10,17.10,17.10
21/06/2017,12.79,17.10,12.79,0.00 (0.00 %)," ",0,0,0,0,17.10,17.1,17.10,17.10
20/06/2017,12.79,17.10,12.79,0.00 (0.00 %)," ",0,0,0,0,17.10,17.10,17.10,17.10
19/06/2017,12.79,17.10,12.79,0.00 (0.00 %)," ",0,0,0,0,17.10,17.1,17.10,17.10
16/06/2017,12.79,17.10,12.79,0.00 (0.00 %)," ",0,0,0,0,17.10,17.10,17.10,17.10
14/06/2017,12.79,17.10,12.79,0.00 (0.00 %)," ",0,0,0,0,17.10,17.1,17.10,17.10
13/06/2017,12.79,17.10,12.79,0.00 (0.00 %)," ",0,0,0,0,17.10,17.10,17.10,17.10
12/06/2017,12.79,17.10,12.79,0.00 (0.00 %)," ",0,0,0,0,17.10,17.1,17.10,17.10
09/06/2017,12.79,17.10,12.79,0.00 (0.00 %)," ",0,0,0,0,17.10,17.10,17.10,17.10
08/06/2017,12.79,17.10,12.79,0.00 (0.00 %)," ",0,0,0,0,17.10,17.1,17.10,17.10
07/06/2017,12.79,17.10,12.79,0.00 (0.00 %)," ",0,0,0,0,17.10,17.10,17.10,17.10
06/06/2017,12.79,17.10,12.79,0.00 (0.00 %)," ",0,0,0,0,17.10,17.1,17.10,17.10
05/06/2017,12.79,17.10,12.79,0.00 (0.00 %)," ",0,0,0,0,17.10,17.10,17.10,17.10
02/06/2017,12.79,17.10,12.79,0.00 (0.00 %)," ",0,0,0,0,17.10,17.1,17.10,17.10
01/06/2017,12.79,17.10,12.79,0.00 (0.00 %)," ",0,0,0,0,17.10,17.10,17.10,17.10
31/05/2017,12.79,17.10,12.79,0.00 (0.00 %)," ",0,0,0,0,17.10,17.1,17.10,17.10
30/05/2017,12.79,17.10,12.79,0.00 (0.00 %)," ",0,0,0,0,17.10,17.10,17.10,17.10
29/05/2017,12.79,17.10,12.79,1.30 (8.23 %)," ","3,000","51,300,000",0,0,15.80,17.1,17.10,17.10
26/05/2017,11.81,15.80,11.81,0.00 (0.00 %)," ",0,0,0,0,15.80,15.80,15.80,15.80
25/05/2017,11.81,15.80,11.81,0.00 (0.00 %)," ",0,0,0,0,15.80,15.8,15.80,15.80
24/05/2017,11.81,15.80,11.81,0.00 (0.00 %)," ",0,0,0,0,15.80,15.80,15.80,15.80
23/05/2017,11.81,15.80,11.81,0.00 (0.00 %)," ",0,0,0,0,15.80,15.8,15.80,15.80
22/05/2017,11.81,15.80,11.81,0.00 (0.00 %)," ",0,0,0,0,15.80,15.80,15.80,15.80
19/05/2017,11.81,15.80,11.81,0.00 (0.00 %)," ",0,0,0,0,15.80,15.8,15.80,15.80
18/05/2017,11.81,15.80,11.81,0.00 (0.00 %)," ",0,0,0,0,15.80,15.80,15.80,15.80
17/05/2017,11.81,15.80,11.81,0.00 (0.00 %)," ",0,0,0,0,15.80,15.8,15.80,15.80
16/05/2017,11.81,15.80,11.81,0.00 (0.00 %)," ",0,0,0,0,15.80,15.80,15.80,15.80
15/05/2017,11.81,15.80,11.81,0.00 (0.00 %)," ",0,0,0,0,15.80,15.8,15.80,15.80
12/05/2017,11.81,15.80,11.81,0.00 (0.00 %)," ",0,0,0,0,15.80,15.80,15.80,15.80
11/05/2017,11.81,15.80,11.81,0.00 (0.00 %)," ",0,0,0,0,15.80,15.8,15.80,15.80
10/05/2017,11.81,15.80,11.81,0.00 (0.00 %)," ",0,0,0,0,15.80,15.80,15.80,15.80
09/05/2017,11.81,15.80,11.81,0.00 (0.00 %)," ",0,0,0,0,15.80,15.8,15.80,15.80
08/05/2017,11.81,15.80,11.81,0.00 (0.00 %)," ",0,0,0,0,15.80,15.80,15.80,15.80
05/05/2017,11.81,15.80,11.81,0.00 (0.00 %)," ",0,0,0,0,15.80,15.8,15.80,15.80
04/05/2017,11.81,15.80,11.81,0.00 (0.00 %)," ",0,0,0,0,15.80,15.80,15.80,15.80
03/05/2017,11.81,15.80,11.81,0.00 (0.00 %)," ",0,0,0,0,15.80,15.8,15.80,15.80
28/04/2017,11.81,15.80,11.81,0.00 (0.00 %)," ",0,0,0,0,15.80,15.80,15.80,15.80
27/04/2017,11.81,15.80,11.81,0.00 (0.00 %)," ",0,0,0,0,15.80,15.8,15.80,15.80
26/04/2017,11.81,15.80,11.81,0.00 (0.00 %)," ",0,0,0,0,15.80,15.80,15.80,15.80
25/04/2017,11.81,15.80,11.81,0.00 (0.00 %)," ",0,0,0,0,15.80,15.8,15.80,15.80
24/04/2017,11.81,15.80,11.81,0.00 (0.00 %)," ",0,0,0,0,15.80,15.80,15.80,15.80
21/04/2017,11.81,15.80,11.81,0.00 (0.00 %)," ",0,0,0,0,15.80,15.8,15.80,15.80
20/04/2017,11.81,15.80,11.81,0.00 (0.00 %)," ",0,0,0,0,15.80,15.80,15.80,15.80
19/04/2017,11.81,15.80,11.81,0.00 (0.00 %)," ",0,0,0,0,15.80,15.8,15.80,15.80
18/04/2017,11.81,15.80,11.81,0.00 (0.00 %)," ",0,0,0,0,15.80,15.80,15.80,15.80
17/04/2017,11.81,15.80,11.81,0.00 (0.00 %)," ",0,0,0,0,15.80,15.8,15.80,15.80
14/04/2017,11.81,15.80,11.81,0.00 (0.00 %)," ",0,0,0,0,15.80,15.80,15.80,15.80
13/04/2017,11.81,15.80,11.81,0.00 (0.00 %)," ",0,0,0,0,15.80,15.8,15.80,15.80
12/04/2017,11.81,15.80,11.81,0.00 (0.00 %)," ",0,0,0,0,15.80,15.80,15.80,15.80
11/04/2017,11.81,15.80,11.81,0.00 (0.00 %)," ",0,0,0,0,15.80,15.8,15.80,15.80
10/04/2017,11.81,15.80,11.81,0.00 (0.00 %)," ",0,0,0,0,15.80,15.80,15.80,15.80
07/04/2017,11.81,15.80,11.81,0.00 (0.00 %)," ",0,0,0,0,15.80,15.8,15.80,15.80
05/04/2017,11.81,15.80,11.81,0.00 (0.00 %)," ",0,0,0,0,15.80,15.80,15.80,15.80
04/04/2017,11.81,15.80,11.81,0.00 (0.00 %)," ",0,0,0,0,15.80,15.8,15.80,15.80
03/04/2017,11.81,15.80,11.81,0.00 (0.00 %)," ",0,0,0,0,15.80,15.80,15.80,15.80
31/03/2017,11.81,15.80,11.81,0.00 (0.00 %)," ",0,0,0,0,15.80,15.8,15.80,15.80
30/03/2017,11.81,15.80,11.81,0.00 (0.00 %)," ",0,0,0,0,15.80,15.80,15.80,15.80
29/03/2017,11.81,15.80,11.81,0.00 (0.00 %)," ",0,0,0,0,15.80,15.8,15.80,15.80
28/03/2017,11.81,15.80,11.81,0.00 (0.00 %)," ",0,0,0,0,15.80,15.80,15.80,15.80
27/03/2017,11.81,15.80,11.81,0.00 (0.00 %)," ",0,0,0,0,15.80,15.8,15.80,15.80
24/03/2017,11.81,15.80,11.81,0.00 (0.00 %)," ",0,0,0,0,15.80,15.80,15.80,15.80
23/03/2017,11.81,15.80,11.81,0.00 (0.00 %)," ",0,0,"13,778","249,381,800",15.80,15.8,15.80,15.80
22/03/2017,11.81,15.80,11.81,0.00 (0.00 %)," ",0,0,"43,487","787,114,700",15.80,15.80,15.80,15.80
21/03/2017,11.81,15.80,11.81,0.00 (0.00 %)," ",0,0,0,0,15.80,15.8,15.80,15.80
20/03/2017,11.81,15.80,11.81,0.00 (0.00 %)," ",0,0,0,0,15.80,15.80,15.80,15.80
17/03/2017,11.81,15.80,11.81,0.00 (0.00 %)," ",0,0,0,0,15.80,15.8,15.80,15.80
16/03/2017,11.81,15.80,11.81,0.00 (0.00 %)," ",0,0,0,0,15.80,15.80,15.80,15.80
15/03/2017,11.81,15.80,11.81,0.00 (0.00 %)," ",0,0,0,0,15.80,15.8,15.80,15.80
14/03/2017,11.81,15.80,11.81,0.00 (0.00 %)," ",0,0,0,0,15.80,15.80,15.80,15.80
13/03/2017,11.81,15.80,11.81,0.00 (0.00 %)," ",0,0,0,0,15.80,15.8,15.80,15.80
10/03/2017,11.81,15.80,11.81,0.00 (0.00 %)," ",0,0,0,0,15.80,15.80,15.80,15.80
09/03/2017,11.81,15.80,11.81,0.00 (0.00 %)," ",0,0,0,0,15.80,15.8,15.80,15.80
08/03/2017,11.81,15.80,11.81,0.00 (0.00 %)," ",0,0,0,0,15.80,15.80,15.80,15.80
07/03/2017,11.81,15.80,11.81,0.00 (0.00 %)," ",0,0,0,0,15.80,15.8,15.80,15.80
06/03/2017,11.81,15.80,11.81,-2.70 (-14.59 %)," ",100,"1,580,000",0,0,18.50,15.80,15.80,15.80
03/03/2017,13.83,18.50,13.83,0.00 (0.00 %)," ",0,0,0,0,18.50,18.5,18.50,18.50
02/03/2017,13.83,18.50,13.83,0.00 (0.00 %)," ",0,0,0,0,18.50,18.50,18.50,18.50
01/03/2017,13.83,18.50,13.83,0.00 (0.00 %)," ",0,0,0,0,18.50,18.5,18.50,18.50
28/02/2017,13.83,18.50,13.83,0.00 (0.00 %)," ",0,0,0,0,18.50,18.50,18.50,18.50
27/02/2017,13.83,18.50,13.83,0.00 (0.00 %)," ",0,0,0,0,18.50,18.5,18.50,18.50
24/02/2017,13.83,18.50,13.83,-1.50 (-7.50 %)," ",100,"1,850,000",0,0,20.00,18.50,18.50,18.50
23/02/2017,14.96,20.00,14.96,0.00 (0.00 %)," ",0,0,0,0,20.00,20.0,20.00,20.00
22/02/2017,14.96,20.00,14.96,0.00 (0.00 %)," ",0,0,0,0,20.00,20.00,20.00,20.00
21/02/2017,14.96,20.00,14.96,0.00 (0.00 %)," ",0,0,0,0,20.00,20.0,20.00,20.00
20/02/2017,14.96,20.00,14.96,0.00 (0.00 %)," ","1,000","20,000,000",0,0,20.00,20.00,20.00,20.00
17/02/2017,14.96,20.00,14.96,-2.40 (-10.71 %)," ",800,"16,000,000",0,0,22.40,20.0,20.00,20.00
16/02/2017,16.75,22.40,16.75,6.40 (40.00 %)," ","1,200","26,880,000",0,0,16.00,22.40,22.40,22.40
